Angle,Reflectance
65.000,0.896529
65.001,0.896572
65.002,0.896616
65.003,0.896659
65.004,0.896703
65.005,0.896747
65.006,0.896790
65.007,0.896834
65.008,0.896877
65.009,0.896921
65.010,0.896964
65.011,0.897008
65.012,0.897052
65.013,0.897095
65.014,0.897139
65.015,0.897182
65.016,0.897226
65.017,0.897270
65.018,0.897313
65.019,0.897357
65.020,0.897400
65.021,0.897444
65.022,0.897488
65.023,0.897531
65.024,0.897575
65.025,0.897619
65.026,0.897662
65.027,0.897706
65.028,0.897749
65.029,0.897793
65.030,0.897837
65.031,0.897880
65.032,0.897924
65.033,0.897968
65.034,0.898011
65.035,0.898055
65.036,0.898099
65.037,0.898143
65.038,0.898186
65.039,0.898230
65.040,0.898274
65.041,0.898317
65.042,0.898361
65.043,0.898405
65.044,0.898449
65.045,0.898492
65.046,0.898536
65.047,0.898580
65.048,0.898623
65.049,0.898667
65.050,0.898711
65.051,0.898755
65.052,0.898798
65.053,0.898842
65.054,0.898886
65.055,0.898930
65.056,0.898974
65.057,0.899017
65.058,0.899061
65.059,0.899105
65.060,0.899149
65.061,0.899193
65.062,0.899236
65.063,0.899280
65.064,0.899324
65.065,0.899368
65.066,0.899412
65.067,0.899455
65.068,0.899499
65.069,0.899543
65.070,0.899587
65.071,0.899631
65.072,0.899675
65.073,0.899719
65.074,0.899762
65.075,0.899806
65.076,0.899850
65.077,0.899894
65.078,0.899938
65.079,0.899982
65.080,0.900026
65.081,0.900070
65.082,0.900114
65.083,0.900157
65.084,0.900201
65.085,0.900245
65.086,0.900289
65.087,0.900333
65.088,0.900377
65.089,0.900421
65.090,0.900465
65.091,0.900509
65.092,0.900553
65.093,0.900597
65.094,0.900641
65.095,0.900685
65.096,0.900729
65.097,0.900773
65.098,0.900817
65.099,0.900861
65.100,0.900905
65.101,0.900949
65.102,0.900993
65.103,0.901037
65.104,0.901081
65.105,0.901125
65.106,0.901169
65.107,0.901213
65.108,0.901257
65.109,0.901301
65.110,0.901345
65.111,0.901389
65.112,0.901433
65.113,0.901477
65.114,0.901521
65.115,0.901565
65.116,0.901609
65.117,0.901654
65.118,0.901698
65.119,0.901742
65.120,0.901786
65.121,0.901830
65.122,0.901874
65.123,0.901918
65.124,0.901962
65.125,0.902007
65.126,0.902051
65.127,0.902095
65.128,0.902139
65.129,0.902183
65.130,0.902227
65.131,0.902271
65.132,0.902316
65.133,0.902360
65.134,0.902404
65.135,0.902448
65.136,0.902492
65.137,0.902537
65.138,0.902581
65.139,0.902625
65.140,0.902669
65.141,0.902714
65.142,0.902758
65.143,0.902802
65.144,0.902846
65.145,0.902891
65.146,0.902935
65.147,0.902979
65.148,0.903023
65.149,0.903068
65.150,0.903112
65.151,0.903156
65.152,0.903200
65.153,0.903245
65.154,0.903289
65.155,0.903333
65.156,0.903378
65.157,0.903422
65.158,0.903466
65.159,0.903511
65.160,0.903555
65.161,0.903599
65.162,0.903644
65.163,0.903688
65.164,0.903733
65.165,0.903777
65.166,0.903821
65.167,0.903866
65.168,0.903910
65.169,0.903954
65.170,0.903999
65.171,0.904043
65.172,0.904088
65.173,0.904132
65.174,0.904177
65.175,0.904221
65.176,0.904265
65.177,0.904310
65.178,0.904354
65.179,0.904399
65.180,0.904443
65.181,0.904488
65.182,0.904532
65.183,0.904577
65.184,0.904621
65.185,0.904666
65.186,0.904710
65.187,0.904755
65.188,0.904799
65.189,0.904844
65.190,0.904888
65.191,0.904933
65.192,0.904978
65.193,0.905022
65.194,0.905067
65.195,0.905111
65.196,0.905156
65.197,0.905200
65.198,0.905245
65.199,0.905290
65.200,0.905334
65.201,0.905379
65.202,0.905423
65.203,0.905468
65.204,0.905513
65.205,0.905557
65.206,0.905602
65.207,0.905647
65.208,0.905691
65.209,0.905736
65.210,0.905781
65.211,0.905825
65.212,0.905870
65.213,0.905915
65.214,0.905959
65.215,0.906004
65.216,0.906049
65.217,0.906094
65.218,0.906138
65.219,0.906183
65.220,0.906228
65.221,0.906273
65.222,0.906317
65.223,0.906362
65.224,0.906407
65.225,0.906452
65.226,0.906496
65.227,0.906541
65.228,0.906586
65.229,0.906631
65.230,0.906676
65.231,0.906721
65.232,0.906765
65.233,0.906810
65.234,0.906855
65.235,0.906900
65.236,0.906945
65.237,0.906990
65.238,0.907035
65.239,0.907079
65.240,0.907124
65.241,0.907169
65.242,0.907214
65.243,0.907259
65.244,0.907304
65.245,0.907349
65.246,0.907394
65.247,0.907439
65.248,0.907484
65.249,0.907529
65.250,0.907574
65.251,0.907619
65.252,0.907664
65.253,0.907709
65.254,0.907754
65.255,0.907799
65.256,0.907844
65.257,0.907889
65.258,0.907934
65.259,0.907979
65.260,0.908024
65.261,0.908069
65.262,0.908114
65.263,0.908159
65.264,0.908204
65.265,0.908249
65.266,0.908294
65.267,0.908340
65.268,0.908385
65.269,0.908430
65.270,0.908475
65.271,0.908520
65.272,0.908565
65.273,0.908610
65.274,0.908656
65.275,0.908701
65.276,0.908746
65.277,0.908791
65.278,0.908836
65.279,0.908881
65.280,0.908927
65.281,0.908972
65.282,0.909017
65.283,0.909062
65.284,0.909108
65.285,0.909153
65.286,0.909198
65.287,0.909243
65.288,0.909289
65.289,0.909334
65.290,0.909379
65.291,0.909425
65.292,0.909470
65.293,0.909515
65.294,0.909561
65.295,0.909606
65.296,0.909651
65.297,0.909697
65.298,0.909742
65.299,0.909787
65.300,0.909833
65.301,0.909878
65.302,0.909924
65.303,0.909969
65.304,0.910014
65.305,0.910060
65.306,0.910105
65.307,0.910151
65.308,0.910196
65.309,0.910242
65.310,0.910287
65.311,0.910333
65.312,0.910378
65.313,0.910424
65.314,0.910469
65.315,0.910515
65.316,0.910560
65.317,0.910606
65.318,0.910651
65.319,0.910697
65.320,0.910742
65.321,0.910788
65.322,0.910834
65.323,0.910879
65.324,0.910925
65.325,0.910970
65.326,0.911016
65.327,0.911062
65.328,0.911107
65.329,0.911153
65.330,0.911199
65.331,0.911244
65.332,0.911290
65.333,0.911336
65.334,0.911381
65.335,0.911427
65.336,0.911473
65.337,0.911518
65.338,0.911564
65.339,0.911610
65.340,0.911656
65.341,0.911701
65.342,0.911747
65.343,0.911793
65.344,0.911839
65.345,0.911885
65.346,0.911930
65.347,0.911976
65.348,0.912022
65.349,0.912068
65.350,0.912114
65.351,0.912160
65.352,0.912206
65.353,0.912251
65.354,0.912297
65.355,0.912343
65.356,0.912389
65.357,0.912435
65.358,0.912481
65.359,0.912527
65.360,0.912573
65.361,0.912619
65.362,0.912665
65.363,0.912711
65.364,0.912757
65.365,0.912803
65.366,0.912849
65.367,0.912895
65.368,0.912941
65.369,0.912987
65.370,0.913033
65.371,0.913079
65.372,0.913125
65.373,0.913171
65.374,0.913217
65.375,0.913263
65.376,0.913310
65.377,0.913356
65.378,0.913402
65.379,0.913448
65.380,0.913494
65.381,0.913540
65.382,0.913586
65.383,0.913633
65.384,0.913679
65.385,0.913725
65.386,0.913771
65.387,0.913818
65.388,0.913864
65.389,0.913910
65.390,0.913956
65.391,0.914003
65.392,0.914049
65.393,0.914095
65.394,0.914141
65.395,0.914188
65.396,0.914234
65.397,0.914280
65.398,0.914327
65.399,0.914373
65.400,0.914420
65.401,0.914466
65.402,0.914512
65.403,0.914559
65.404,0.914605
65.405,0.914652
65.406,0.914698
65.407,0.914745
65.408,0.914791
65.409,0.914838
65.410,0.914884
65.411,0.914931
65.412,0.914977
65.413,0.915024
65.414,0.915070
65.415,0.915117
65.416,0.915163
65.417,0.915210
65.418,0.915256
65.419,0.915303
65.420,0.915350
65.421,0.915396
65.422,0.915443
65.423,0.915489
65.424,0.915536
65.425,0.915583
65.426,0.915629
65.427,0.915676
65.428,0.915723
65.429,0.915770
65.430,0.915816
65.431,0.915863
65.432,0.915910
65.433,0.915957
65.434,0.916003
65.435,0.916050
65.436,0.916097
65.437,0.916144
65.438,0.916191
65.439,0.916237
65.440,0.916284
65.441,0.916331
65.442,0.916378
65.443,0.916425
65.444,0.916472
65.445,0.916519
65.446,0.916566
65.447,0.916613
65.448,0.916659
65.449,0.916706
65.450,0.916753
65.451,0.916800
65.452,0.916847
65.453,0.916894
65.454,0.916941
65.455,0.916988
65.456,0.917035
65.457,0.917083
65.458,0.917130
65.459,0.917177
65.460,0.917224
65.461,0.917271
65.462,0.917318
65.463,0.917365
65.464,0.917412
65.465,0.917459
65.466,0.917507
65.467,0.917554
65.468,0.917601
65.469,0.917648
65.470,0.917696
65.471,0.917743
65.472,0.917790
65.473,0.917837
65.474,0.917885
65.475,0.917932
65.476,0.917979
65.477,0.918027
65.478,0.918074
65.479,0.918121
65.480,0.918169
65.481,0.918216
65.482,0.918263
65.483,0.918311
65.484,0.918358
65.485,0.918406
65.486,0.918453
65.487,0.918500
65.488,0.918548
65.489,0.918595
65.490,0.918643
65.491,0.918690
65.492,0.918738
65.493,0.918786
65.494,0.918833
65.495,0.918881
65.496,0.918928
65.497,0.918976
65.498,0.919023
65.499,0.919071
65.500,0.919119
65.501,0.919166
65.502,0.919214
65.503,0.919262
65.504,0.919309
65.505,0.919357
65.506,0.919405
65.507,0.919453
65.508,0.919500
65.509,0.919548
65.510,0.919596
65.511,0.919644
65.512,0.919692
65.513,0.919739
65.514,0.919787
65.515,0.919835
65.516,0.919883
65.517,0.919931
65.518,0.919979
65.519,0.920027
65.520,0.920075
65.521,0.920123
65.522,0.920171
65.523,0.920219
65.524,0.920267
65.525,0.920315
65.526,0.920363
65.527,0.920411
65.528,0.920459
65.529,0.920507
65.530,0.920555
65.531,0.920603
65.532,0.920651
65.533,0.920699
65.534,0.920747
65.535,0.920795
65.536,0.920844
65.537,0.920892
65.538,0.920940
65.539,0.920988
65.540,0.921036
65.541,0.921085
65.542,0.921133
65.543,0.921181
65.544,0.921230
65.545,0.921278
65.546,0.921326
65.547,0.921375
65.548,0.921423
65.549,0.921471
65.550,0.921520
65.551,0.921568
65.552,0.921617
65.553,0.921665
65.554,0.921714
65.555,0.921762
65.556,0.921811
65.557,0.921859
65.558,0.921908
65.559,0.921956
65.560,0.922005
65.561,0.922053
65.562,0.922102
65.563,0.922150
65.564,0.922199
65.565,0.922248
65.566,0.922296
65.567,0.922345
65.568,0.922394
65.569,0.922442
65.570,0.922491
65.571,0.922540
65.572,0.922589
65.573,0.922638
65.574,0.922686
65.575,0.922735
65.576,0.922784
65.577,0.922833
65.578,0.922882
65.579,0.922931
65.580,0.922979
65.581,0.923028
65.582,0.923077
65.583,0.923126
65.584,0.923175
65.585,0.923224
65.586,0.923273
65.587,0.923322
65.588,0.923371
65.589,0.923420
65.590,0.923469
65.591,0.923519
65.592,0.923568
65.593,0.923617
65.594,0.923666
65.595,0.923715
65.596,0.923764
65.597,0.923814
65.598,0.923863
65.599,0.923912
65.600,0.923961
65.601,0.924011
65.602,0.924060
65.603,0.924109
65.604,0.924158
65.605,0.924208
65.606,0.924257
65.607,0.924307
65.608,0.924356
65.609,0.924405
65.610,0.924455
65.611,0.924504
65.612,0.924554
65.613,0.924603
65.614,0.924653
65.615,0.924702
65.616,0.924752
65.617,0.924802
65.618,0.924851
65.619,0.924901
65.620,0.924950
65.621,0.925000
65.622,0.925050
65.623,0.925099
65.624,0.925149
65.625,0.925199
65.626,0.925249
65.627,0.925298
65.628,0.925348
65.629,0.925398
65.630,0.925448
65.631,0.925498
65.632,0.925548
65.633,0.925597
65.634,0.925647
65.635,0.925697
65.636,0.925747
65.637,0.925797
65.638,0.925847
65.639,0.925897
65.640,0.925947
65.641,0.925997
65.642,0.926047
65.643,0.926097
65.644,0.926148
65.645,0.926198
65.646,0.926248
65.647,0.926298
65.648,0.926348
65.649,0.926398
65.650,0.926449
65.651,0.926499
65.652,0.926549
65.653,0.926600
65.654,0.926650
65.655,0.926700
65.656,0.926751
65.657,0.926801
65.658,0.926851
65.659,0.926902
65.660,0.926952
65.661,0.927003
65.662,0.927053
65.663,0.927104
65.664,0.927154
65.665,0.927205
65.666,0.927255
65.667,0.927306
65.668,0.927357
65.669,0.927407
65.670,0.927458
65.671,0.927509
65.672,0.927559
65.673,0.927610
65.674,0.927661
65.675,0.927712
65.676,0.927762
65.677,0.927813
65.678,0.927864
65.679,0.927915
65.680,0.927966
65.681,0.928017
65.682,0.928068
65.683,0.928119
65.684,0.928170
65.685,0.928221
65.686,0.928272
65.687,0.928323
65.688,0.928374
65.689,0.928425
65.690,0.928476
65.691,0.928527
65.692,0.928578
65.693,0.928629
65.694,0.928681
65.695,0.928732
65.696,0.928783
65.697,0.928834
65.698,0.928886
65.699,0.928937
65.700,0.928988
65.701,0.929040
65.702,0.929091
65.703,0.929143
65.704,0.929194
65.705,0.929246
65.706,0.929297
65.707,0.929349
65.708,0.929400
65.709,0.929452
65.710,0.929503
65.711,0.929555
65.712,0.929607
65.713,0.929658
65.714,0.929710
65.715,0.929762
65.716,0.929814
65.717,0.929865
65.718,0.929917
65.719,0.929969
65.720,0.930021
65.721,0.930073
65.722,0.930125
65.723,0.930176
65.724,0.930228
65.725,0.930280
65.726,0.930332
65.727,0.930384
65.728,0.930436
65.729,0.930489
65.730,0.930541
65.731,0.930593
65.732,0.930645
65.733,0.930697
65.734,0.930749
65.735,0.930802
65.736,0.930854
65.737,0.930906
65.738,0.930958
65.739,0.931011
65.740,0.931063
65.741,0.931116
65.742,0.931168
65.743,0.931220
65.744,0.931273
65.745,0.931325
65.746,0.931378
65.747,0.931431
65.748,0.931483
65.749,0.931536
65.750,0.931588
65.751,0.931641
65.752,0.931694
65.753,0.931747
65.754,0.931799
65.755,0.931852
65.756,0.931905
65.757,0.931958
65.758,0.932011
65.759,0.932063
65.760,0.932116
65.761,0.932169
65.762,0.932222
65.763,0.932275
65.764,0.932328
65.765,0.932381
65.766,0.932435
65.767,0.932488
65.768,0.932541
65.769,0.932594
65.770,0.932647
65.771,0.932700
65.772,0.932754
65.773,0.932807
65.774,0.932860
65.775,0.932914
65.776,0.932967
65.777,0.933021
65.778,0.933074
65.779,0.933127
65.780,0.933181
65.781,0.933235
65.782,0.933288
65.783,0.933342
65.784,0.933395
65.785,0.933449
65.786,0.933503
65.787,0.933556
65.788,0.933610
65.789,0.933664
65.790,0.933718
65.791,0.933772
65.792,0.933825
65.793,0.933879
65.794,0.933933
65.795,0.933987
65.796,0.934041
65.797,0.934095
65.798,0.934149
65.799,0.934204
65.800,0.934258
65.801,0.934312
65.802,0.934366
65.803,0.934420
65.804,0.934474
65.805,0.934529
65.806,0.934583
65.807,0.934637
65.808,0.934692
65.809,0.934746
65.810,0.934801
65.811,0.934855
65.812,0.934910
65.813,0.934964
65.814,0.935019
65.815,0.935074
65.816,0.935128
65.817,0.935183
65.818,0.935238
65.819,0.935292
65.820,0.935347
65.821,0.935402
65.822,0.935457
65.823,0.935512
65.824,0.935567
65.825,0.935622
65.826,0.935677
65.827,0.935732
65.828,0.935787
65.829,0.935842
65.830,0.935897
65.831,0.935952
65.832,0.936007
65.833,0.936063
65.834,0.936118
65.835,0.936173
65.836,0.936229
65.837,0.936284
65.838,0.936339
65.839,0.936395
65.840,0.936450
65.841,0.936506
65.842,0.936562
65.843,0.936617
65.844,0.936673
65.845,0.936728
65.846,0.936784
65.847,0.936840
65.848,0.936896
65.849,0.936952
65.850,0.937007
65.851,0.937063
65.852,0.937119
65.853,0.937175
65.854,0.937231
65.855,0.937287
65.856,0.937343
65.857,0.937400
65.858,0.937456
65.859,0.937512
65.860,0.937568
65.861,0.937625
65.862,0.937681
65.863,0.937737
65.864,0.937794
65.865,0.937850
65.866,0.937907
65.867,0.937963
65.868,0.938020
65.869,0.938076
65.870,0.938133
65.871,0.938190
65.872,0.938246
65.873,0.938303
65.874,0.938360
65.875,0.938417
65.876,0.938474
65.877,0.938531
65.878,0.938588
65.879,0.938645
65.880,0.938702
65.881,0.938759
65.882,0.938816
65.883,0.938873
65.884,0.938930
65.885,0.938988
65.886,0.939045
65.887,0.939102
65.888,0.939160
65.889,0.939217
65.890,0.939275
65.891,0.939332
65.892,0.939390
65.893,0.939447
65.894,0.939505
65.895,0.939563
65.896,0.939620
65.897,0.939678
65.898,0.939736
65.899,0.939794
65.900,0.939852
65.901,0.939910
65.902,0.939968
65.903,0.940026
65.904,0.940084
65.905,0.940142
65.906,0.940200
65.907,0.940259
65.908,0.940317
65.909,0.940375
65.910,0.940433
65.911,0.940492
65.912,0.940550
65.913,0.940609
65.914,0.940667
65.915,0.940726
65.916,0.940785
65.917,0.940843
65.918,0.940902
65.919,0.940961
65.920,0.941020
65.921,0.941079
65.922,0.941138
65.923,0.941197
65.924,0.941256
65.925,0.941315
65.926,0.941374
65.927,0.941433
65.928,0.941492
65.929,0.941552
65.930,0.941611
65.931,0.941670
65.932,0.941730
65.933,0.941789
65.934,0.941849
65.935,0.941908
65.936,0.941968
65.937,0.942028
65.938,0.942087
65.939,0.942147
65.940,0.942207
65.941,0.942267
65.942,0.942327
65.943,0.942387
65.944,0.942447
65.945,0.942507
65.946,0.942567
65.947,0.942627
65.948,0.942688
65.949,0.942748
65.950,0.942808
65.951,0.942869
65.952,0.942929
65.953,0.942990
65.954,0.943050
65.955,0.943111
65.956,0.943172
65.957,0.943233
65.958,0.943293
65.959,0.943354
65.960,0.943415
65.961,0.943476
65.962,0.943537
65.963,0.943598
65.964,0.943659
65.965,0.943721
65.966,0.943782
65.967,0.943843
65.968,0.943904
65.969,0.943966
65.970,0.944027
65.971,0.944089
65.972,0.944151
65.973,0.944212
65.974,0.944274
65.975,0.944336
65.976,0.944398
65.977,0.944459
65.978,0.944521
65.979,0.944583
65.980,0.944646
65.981,0.944708
65.982,0.944770
65.983,0.944832
65.984,0.944894
65.985,0.944957
65.986,0.945019
65.987,0.945082
65.988,0.945144
65.989,0.945207
65.990,0.945270
65.991,0.945333
65.992,0.945395
65.993,0.945458
65.994,0.945521
65.995,0.945584
65.996,0.945647
65.997,0.945710
65.998,0.945774
65.999,0.945837
66.000,0.945900
66.001,0.945964
66.002,0.946027
66.003,0.946091
66.004,0.946154
66.005,0.946218
66.006,0.946282
66.007,0.946346
66.008,0.946409
66.009,0.946473
66.010,0.946537
66.011,0.946602
66.012,0.946666
66.013,0.946730
66.014,0.946794
66.015,0.946859
66.016,0.946923
66.017,0.946987
66.018,0.947052
66.019,0.947117
66.020,0.947181
66.021,0.947246
66.022,0.947311
66.023,0.947376
66.024,0.947441
66.025,0.947506
66.026,0.947571
66.027,0.947637
66.028,0.947702
66.029,0.947767
66.030,0.947833
66.031,0.947898
66.032,0.947964
66.033,0.948030
66.034,0.948095
66.035,0.948161
66.036,0.948227
66.037,0.948293
66.038,0.948359
66.039,0.948425
66.040,0.948491
66.041,0.948558
66.042,0.948624
66.043,0.948691
66.044,0.948757
66.045,0.948824
66.046,0.948891
66.047,0.948957
66.048,0.949024
66.049,0.949091
66.050,0.949158
66.051,0.949225
66.052,0.949292
66.053,0.949360
66.054,0.949427
66.055,0.949495
66.056,0.949562
66.057,0.949630
66.058,0.949697
66.059,0.949765
66.060,0.949833
66.061,0.949901
66.062,0.949969
66.063,0.950037
66.064,0.950106
66.065,0.950174
66.066,0.950242
66.067,0.950311
66.068,0.950379
66.069,0.950448
66.070,0.950517
66.071,0.950586
66.072,0.950655
66.073,0.950724
66.074,0.950793
66.075,0.950862
66.076,0.950931
66.077,0.951001
66.078,0.951070
66.079,0.951140
66.080,0.951210
66.081,0.951280
66.082,0.951349
66.083,0.951419
66.084,0.951490
66.085,0.951560
66.086,0.951630
66.087,0.951700
66.088,0.951771
66.089,0.951842
66.090,0.951912
66.091,0.951983
66.092,0.952054
66.093,0.952125
66.094,0.952196
66.095,0.952267
66.096,0.952339
66.097,0.952410
66.098,0.952482
66.099,0.952553
66.100,0.952625
66.101,0.952697
66.102,0.952769
66.103,0.952841
66.104,0.952913
66.105,0.952985
66.106,0.953058
66.107,0.953130
66.108,0.953203
66.109,0.953276
66.110,0.953348
66.111,0.953421
66.112,0.953494
66.113,0.953568
66.114,0.953641
66.115,0.953714
66.116,0.953788
66.117,0.953862
66.118,0.953935
66.119,0.954009
66.120,0.954083
66.121,0.954157
66.122,0.954232
66.123,0.954306
66.124,0.954380
66.125,0.954455
66.126,0.954530
66.127,0.954605
66.128,0.954680
66.129,0.954755
66.130,0.954830
66.131,0.954905
66.132,0.954981
66.133,0.955057
66.134,0.955132
66.135,0.955208
66.136,0.955284
66.137,0.955361
66.138,0.955437
66.139,0.955513
66.140,0.955590
66.141,0.955667
66.142,0.955743
66.143,0.955820
66.144,0.955898
66.145,0.955975
66.146,0.956052
66.147,0.956130
66.148,0.956207
66.149,0.956285
66.150,0.956363
66.151,0.956441
66.152,0.956520
66.153,0.956598
66.154,0.956677
66.155,0.956755
66.156,0.956834
66.157,0.956913
66.158,0.956992
66.159,0.957072
66.160,0.957151
66.161,0.957231
66.162,0.957311
66.163,0.957391
66.164,0.957471
66.165,0.957551
66.166,0.957631
66.167,0.957712
66.168,0.957793
66.169,0.957874
66.170,0.957955
66.171,0.958036
66.172,0.958118
66.173,0.958199
66.174,0.958281
66.175,0.958363
66.176,0.958445
66.177,0.958527
66.178,0.958610
66.179,0.958692
66.180,0.958775
66.181,0.958858
66.182,0.958941
66.183,0.959025
66.184,0.959108
66.185,0.959192
66.186,0.959276
66.187,0.959360
66.188,0.959444
66.189,0.959529
66.190,0.959614
66.191,0.959698
66.192,0.959784
66.193,0.959869
66.194,0.959954
66.195,0.960040
66.196,0.960126
66.197,0.960212
66.198,0.960298
66.199,0.960385
66.200,0.960471
66.201,0.960558
66.202,0.960646
66.203,0.960733
66.204,0.960820
66.205,0.960908
66.206,0.960996
66.207,0.961084
66.208,0.961173
66.209,0.961262
66.210,0.961350
66.211,0.961440
66.212,0.961529
66.213,0.961619
66.214,0.961708
66.215,0.961799
66.216,0.961889
66.217,0.961979
66.218,0.962070
66.219,0.962161
66.220,0.962253
66.221,0.962344
66.222,0.962436
66.223,0.962528
66.224,0.962620
66.225,0.962713
66.226,0.962806
66.227,0.962899
66.228,0.962992
66.229,0.963086
66.230,0.963180
66.231,0.963274
66.232,0.963369
66.233,0.963463
66.234,0.963558
66.235,0.963654
66.236,0.963749
66.237,0.963845
66.238,0.963941
66.239,0.964038
66.240,0.964135
66.241,0.964232
66.242,0.964329
66.243,0.964427
66.244,0.964525
66.245,0.964624
66.246,0.964722
66.247,0.964821
