Angle,Reflectance
65.000,0.835065
65.001,0.835099
65.002,0.835134
65.003,0.835168
65.004,0.835203
65.005,0.835237
65.006,0.835272
65.007,0.835306
65.008,0.835341
65.009,0.835375
65.010,0.835409
65.011,0.835444
65.012,0.835478
65.013,0.835513
65.014,0.835547
65.015,0.835581
65.016,0.835616
65.017,0.835650
65.018,0.835685
65.019,0.835719
65.020,0.835753
65.021,0.835788
65.022,0.835822
65.023,0.835857
65.024,0.835891
65.025,0.835925
65.026,0.835960
65.027,0.835994
65.028,0.836028
65.029,0.836063
65.030,0.836097
65.031,0.836131
65.032,0.836166
65.033,0.836200
65.034,0.836234
65.035,0.836269
65.036,0.836303
65.037,0.836337
65.038,0.836372
65.039,0.836406
65.040,0.836440
65.041,0.836475
65.042,0.836509
65.043,0.836543
65.044,0.836578
65.045,0.836612
65.046,0.836646
65.047,0.836680
65.048,0.836715
65.049,0.836749
65.050,0.836783
65.051,0.836817
65.052,0.836852
65.053,0.836886
65.054,0.836920
65.055,0.836954
65.056,0.836989
65.057,0.837023
65.058,0.837057
65.059,0.837091
65.060,0.837126
65.061,0.837160
65.062,0.837194
65.063,0.837228
65.064,0.837262
65.065,0.837297
65.066,0.837331
65.067,0.837365
65.068,0.837399
65.069,0.837433
65.070,0.837468
65.071,0.837502
65.072,0.837536
65.073,0.837570
65.074,0.837604
65.075,0.837638
65.076,0.837673
65.077,0.837707
65.078,0.837741
65.079,0.837775
65.080,0.837809
65.081,0.837843
65.082,0.837877
65.083,0.837912
65.084,0.837946
65.085,0.837980
65.086,0.838014
65.087,0.838048
65.088,0.838082
65.089,0.838116
65.090,0.838150
65.091,0.838184
65.092,0.838218
65.093,0.838253
65.094,0.838287
65.095,0.838321
65.096,0.838355
65.097,0.838389
65.098,0.838423
65.099,0.838457
65.100,0.838491
65.101,0.838525
65.102,0.838559
65.103,0.838593
65.104,0.838627
65.105,0.838661
65.106,0.838695
65.107,0.838729
65.108,0.838763
65.109,0.838797
65.110,0.838831
65.111,0.838865
65.112,0.838899
65.113,0.838933
65.114,0.838967
65.115,0.839001
65.116,0.839035
65.117,0.839069
65.118,0.839103
65.119,0.839137
65.120,0.839171
65.121,0.839205
65.122,0.839239
65.123,0.839273
65.124,0.839307
65.125,0.839341
65.126,0.839375
65.127,0.839409
65.128,0.839443
65.129,0.839477
65.130,0.839511
65.131,0.839545
65.132,0.839579
65.133,0.839613
65.134,0.839646
65.135,0.839680
65.136,0.839714
65.137,0.839748
65.138,0.839782
65.139,0.839816
65.140,0.839850
65.141,0.839884
65.142,0.839918
65.143,0.839952
65.144,0.839985
65.145,0.840019
65.146,0.840053
65.147,0.840087
65.148,0.840121
65.149,0.840155
65.150,0.840189
65.151,0.840222
65.152,0.840256
65.153,0.840290
65.154,0.840324
65.155,0.840358
65.156,0.840392
65.157,0.840425
65.158,0.840459
65.159,0.840493
65.160,0.840527
65.161,0.840561
65.162,0.840594
65.163,0.840628
65.164,0.840662
65.165,0.840696
65.166,0.840730
65.167,0.840763
65.168,0.840797
65.169,0.840831
65.170,0.840865
65.171,0.840898
65.172,0.840932
65.173,0.840966
65.174,0.841000
65.175,0.841034
65.176,0.841067
65.177,0.841101
65.178,0.841135
65.179,0.841168
65.180,0.841202
65.181,0.841236
65.182,0.841270
65.183,0.841303
65.184,0.841337
65.185,0.841371
65.186,0.841404
65.187,0.841438
65.188,0.841472
65.189,0.841506
65.190,0.841539
65.191,0.841573
65.192,0.841607
65.193,0.841640
65.194,0.841674
65.195,0.841708
65.196,0.841741
65.197,0.841775
65.198,0.841809
65.199,0.841842
65.200,0.841876
65.201,0.841910
65.202,0.841943
65.203,0.841977
65.204,0.842010
65.205,0.842044
65.206,0.842078
65.207,0.842111
65.208,0.842145
65.209,0.842179
65.210,0.842212
65.211,0.842246
65.212,0.842279
65.213,0.842313
65.214,0.842347
65.215,0.842380
65.216,0.842414
65.217,0.842447
65.218,0.842481
65.219,0.842514
65.220,0.842548
65.221,0.842582
65.222,0.842615
65.223,0.842649
65.224,0.842682
65.225,0.842716
65.226,0.842749
65.227,0.842783
65.228,0.842816
65.229,0.842850
65.230,0.842884
65.231,0.842917
65.232,0.842951
65.233,0.842984
65.234,0.843018
65.235,0.843051
65.236,0.843085
65.237,0.843118
65.238,0.843152
65.239,0.843185
65.240,0.843219
65.241,0.843252
65.242,0.843286
65.243,0.843319
65.244,0.843353
65.245,0.843386
65.246,0.843419
65.247,0.843453
65.248,0.843486
65.249,0.843520
65.250,0.843553
65.251,0.843587
65.252,0.843620
65.253,0.843654
65.254,0.843687
65.255,0.843720
65.256,0.843754
65.257,0.843787
65.258,0.843821
65.259,0.843854
65.260,0.843888
65.261,0.843921
65.262,0.843954
65.263,0.843988
65.264,0.844021
65.265,0.844055
65.266,0.844088
65.267,0.844121
65.268,0.844155
65.269,0.844188
65.270,0.844221
65.271,0.844255
65.272,0.844288
65.273,0.844321
65.274,0.844355
65.275,0.844388
65.276,0.844422
65.277,0.844455
65.278,0.844488
65.279,0.844522
65.280,0.844555
65.281,0.844588
65.282,0.844622
65.283,0.844655
65.284,0.844688
65.285,0.844721
65.286,0.844755
65.287,0.844788
65.288,0.844821
65.289,0.844855
65.290,0.844888
65.291,0.844921
65.292,0.844955
65.293,0.844988
65.294,0.845021
65.295,0.845054
65.296,0.845088
65.297,0.845121
65.298,0.845154
65.299,0.845187
65.300,0.845221
65.301,0.845254
65.302,0.845287
65.303,0.845320
65.304,0.845354
65.305,0.845387
65.306,0.845420
65.307,0.845453
65.308,0.845487
65.309,0.845520
65.310,0.845553
65.311,0.845586
65.312,0.845619
65.313,0.845653
65.314,0.845686
65.315,0.845719
65.316,0.845752
65.317,0.845785
65.318,0.845819
65.319,0.845852
65.320,0.845885
65.321,0.845918
65.322,0.845951
65.323,0.845984
65.324,0.846018
65.325,0.846051
65.326,0.846084
65.327,0.846117
65.328,0.846150
65.329,0.846183
65.330,0.846216
65.331,0.846250
65.332,0.846283
65.333,0.846316
65.334,0.846349
65.335,0.846382
65.336,0.846415
65.337,0.846448
65.338,0.846481
65.339,0.846515
65.340,0.846548
65.341,0.846581
65.342,0.846614
65.343,0.846647
65.344,0.846680
65.345,0.846713
65.346,0.846746
65.347,0.846779
65.348,0.846812
65.349,0.846845
65.350,0.846878
65.351,0.846911
65.352,0.846944
65.353,0.846978
65.354,0.847011
65.355,0.847044
65.356,0.847077
65.357,0.847110
65.358,0.847143
65.359,0.847176
65.360,0.847209
65.361,0.847242
65.362,0.847275
65.363,0.847308
65.364,0.847341
65.365,0.847374
65.366,0.847407
65.367,0.847440
65.368,0.847473
65.369,0.847506
65.370,0.847539
65.371,0.847572
65.372,0.847605
65.373,0.847638
65.374,0.847671
65.375,0.847704
65.376,0.847737
65.377,0.847770
65.378,0.847802
65.379,0.847835
65.380,0.847868
65.381,0.847901
65.382,0.847934
65.383,0.847967
65.384,0.848000
65.385,0.848033
65.386,0.848066
65.387,0.848099
65.388,0.848132
65.389,0.848165
65.390,0.848198
65.391,0.848230
65.392,0.848263
65.393,0.848296
65.394,0.848329
65.395,0.848362
65.396,0.848395
65.397,0.848428
65.398,0.848461
65.399,0.848494
65.400,0.848526
65.401,0.848559
65.402,0.848592
65.403,0.848625
65.404,0.848658
65.405,0.848691
65.406,0.848724
65.407,0.848756
65.408,0.848789
65.409,0.848822
65.410,0.848855
65.411,0.848888
65.412,0.848921
65.413,0.848953
65.414,0.848986
65.415,0.849019
65.416,0.849052
65.417,0.849085
65.418,0.849117
65.419,0.849150
65.420,0.849183
65.421,0.849216
65.422,0.849249
65.423,0.849281
65.424,0.849314
65.425,0.849347
65.426,0.849380
65.427,0.849412
65.428,0.849445
65.429,0.849478
65.430,0.849511
65.431,0.849543
65.432,0.849576
65.433,0.849609
65.434,0.849642
65.435,0.849674
65.436,0.849707
65.437,0.849740
65.438,0.849773
65.439,0.849805
65.440,0.849838
65.441,0.849871
65.442,0.849903
65.443,0.849936
65.444,0.849969
65.445,0.850002
65.446,0.850034
65.447,0.850067
65.448,0.850100
65.449,0.850132
65.450,0.850165
65.451,0.850198
65.452,0.850230
65.453,0.850263
65.454,0.850296
65.455,0.850328
65.456,0.850361
65.457,0.850394
65.458,0.850426
65.459,0.850459
65.460,0.850492
65.461,0.850524
65.462,0.850557
65.463,0.850590
65.464,0.850622
65.465,0.850655
65.466,0.850687
65.467,0.850720
65.468,0.850753
65.469,0.850785
65.470,0.850818
65.471,0.850850
65.472,0.850883
65.473,0.850916
65.474,0.850948
65.475,0.850981
65.476,0.851013
65.477,0.851046
65.478,0.851079
65.479,0.851111
65.480,0.851144
65.481,0.851176
65.482,0.851209
65.483,0.851241
65.484,0.851274
65.485,0.851307
65.486,0.851339
65.487,0.851372
65.488,0.851404
65.489,0.851437
65.490,0.851469
65.491,0.851502
65.492,0.851534
65.493,0.851567
65.494,0.851599
65.495,0.851632
65.496,0.851664
65.497,0.851697
65.498,0.851729
65.499,0.851762
65.500,0.851794
65.501,0.851827
65.502,0.851859
65.503,0.851892
65.504,0.851924
65.505,0.851957
65.506,0.851989
65.507,0.852022
65.508,0.852054
65.509,0.852087
65.510,0.852119
65.511,0.852152
65.512,0.852184
65.513,0.852216
65.514,0.852249
65.515,0.852281
65.516,0.852314
65.517,0.852346
65.518,0.852379
65.519,0.852411
65.520,0.852443
65.521,0.852476
65.522,0.852508
65.523,0.852541
65.524,0.852573
65.525,0.852606
65.526,0.852638
65.527,0.852670
65.528,0.852703
65.529,0.852735
65.530,0.852768
65.531,0.852800
65.532,0.852832
65.533,0.852865
65.534,0.852897
65.535,0.852929
65.536,0.852962
65.537,0.852994
65.538,0.853026
65.539,0.853059
65.540,0.853091
65.541,0.853124
65.542,0.853156
65.543,0.853188
65.544,0.853221
65.545,0.853253
65.546,0.853285
65.547,0.853318
65.548,0.853350
65.549,0.853382
65.550,0.853414
65.551,0.853447
65.552,0.853479
65.553,0.853511
65.554,0.853544
65.555,0.853576
65.556,0.853608
65.557,0.853641
65.558,0.853673
65.559,0.853705
65.560,0.853737
65.561,0.853770
65.562,0.853802
65.563,0.853834
65.564,0.853867
65.565,0.853899
65.566,0.853931
65.567,0.853963
65.568,0.853996
65.569,0.854028
65.570,0.854060
65.571,0.854092
65.572,0.854125
65.573,0.854157
65.574,0.854189
65.575,0.854221
65.576,0.854253
65.577,0.854286
65.578,0.854318
65.579,0.854350
65.580,0.854382
65.581,0.854414
65.582,0.854447
65.583,0.854479
65.584,0.854511
65.585,0.854543
65.586,0.854575
65.587,0.854608
65.588,0.854640
65.589,0.854672
65.590,0.854704
65.591,0.854736
65.592,0.854768
65.593,0.854801
65.594,0.854833
65.595,0.854865
65.596,0.854897
65.597,0.854929
65.598,0.854961
65.599,0.854994
65.600,0.855026
65.601,0.855058
65.602,0.855090
65.603,0.855122
65.604,0.855154
65.605,0.855186
65.606,0.855218
65.607,0.855250
65.608,0.855283
65.609,0.855315
65.610,0.855347
65.611,0.855379
65.612,0.855411
65.613,0.855443
65.614,0.855475
65.615,0.855507
65.616,0.855539
65.617,0.855571
65.618,0.855603
65.619,0.855636
65.620,0.855668
65.621,0.855700
65.622,0.855732
65.623,0.855764
65.624,0.855796
65.625,0.855828
65.626,0.855860
65.627,0.855892
65.628,0.855924
65.629,0.855956
65.630,0.855988
65.631,0.856020
65.632,0.856052
65.633,0.856084
65.634,0.856116
65.635,0.856148
65.636,0.856180
65.637,0.856212
65.638,0.856244
65.639,0.856276
65.640,0.856308
65.641,0.856340
65.642,0.856372
65.643,0.856404
65.644,0.856436
65.645,0.856468
65.646,0.856500
65.647,0.856532
65.648,0.856564
65.649,0.856596
65.650,0.856628
65.651,0.856660
65.652,0.856692
65.653,0.856724
65.654,0.856756
65.655,0.856788
65.656,0.856820
65.657,0.856852
65.658,0.856884
65.659,0.856915
65.660,0.856947
65.661,0.856979
65.662,0.857011
65.663,0.857043
65.664,0.857075
65.665,0.857107
65.666,0.857139
65.667,0.857171
65.668,0.857203
65.669,0.857235
65.670,0.857266
65.671,0.857298
65.672,0.857330
65.673,0.857362
65.674,0.857394
65.675,0.857426
65.676,0.857458
65.677,0.857490
65.678,0.857521
65.679,0.857553
65.680,0.857585
65.681,0.857617
65.682,0.857649
65.683,0.857681
65.684,0.857713
65.685,0.857744
65.686,0.857776
65.687,0.857808
65.688,0.857840
65.689,0.857872
65.690,0.857904
65.691,0.857935
65.692,0.857967
65.693,0.857999
65.694,0.858031
65.695,0.858063
65.696,0.858094
65.697,0.858126
65.698,0.858158
65.699,0.858190
65.700,0.858222
65.701,0.858253
65.702,0.858285
65.703,0.858317
65.704,0.858349
65.705,0.858380
65.706,0.858412
65.707,0.858444
65.708,0.858476
65.709,0.858508
65.710,0.858539
65.711,0.858571
65.712,0.858603
65.713,0.858634
65.714,0.858666
65.715,0.858698
65.716,0.858730
65.717,0.858761
65.718,0.858793
65.719,0.858825
65.720,0.858857
65.721,0.858888
65.722,0.858920
65.723,0.858952
65.724,0.858983
65.725,0.859015
65.726,0.859047
65.727,0.859079
65.728,0.859110
65.729,0.859142
65.730,0.859174
65.731,0.859205
65.732,0.859237
65.733,0.859269
65.734,0.859300
65.735,0.859332
65.736,0.859364
65.737,0.859395
65.738,0.859427
65.739,0.859459
65.740,0.859490
65.741,0.859522
65.742,0.859554
65.743,0.859585
65.744,0.859617
65.745,0.859649
65.746,0.859680
65.747,0.859712
65.748,0.859743
65.749,0.859775
65.750,0.859807
65.751,0.859838
65.752,0.859870
65.753,0.859901
65.754,0.859933
65.755,0.859965
65.756,0.859996
65.757,0.860028
65.758,0.860059
65.759,0.860091
65.760,0.860123
65.761,0.860154
65.762,0.860186
65.763,0.860217
65.764,0.860249
65.765,0.860281
65.766,0.860312
65.767,0.860344
65.768,0.860375
65.769,0.860407
65.770,0.860438
65.771,0.860470
65.772,0.860501
65.773,0.860533
65.774,0.860565
65.775,0.860596
65.776,0.860628
65.777,0.860659
65.778,0.860691
65.779,0.860722
65.780,0.860754
65.781,0.860785
65.782,0.860817
65.783,0.860848
65.784,0.860880
65.785,0.860911
65.786,0.860943
65.787,0.860974
65.788,0.861006
65.789,0.861037
65.790,0.861069
65.791,0.861100
65.792,0.861132
65.793,0.861163
65.794,0.861195
65.795,0.861226
65.796,0.861258
65.797,0.861289
65.798,0.861320
65.799,0.861352
65.800,0.861383
65.801,0.861415
65.802,0.861446
65.803,0.861478
65.804,0.861509
65.805,0.861541
65.806,0.861572
65.807,0.861603
65.808,0.861635
65.809,0.861666
65.810,0.861698
65.811,0.861729
65.812,0.861761
65.813,0.861792
65.814,0.861823
65.815,0.861855
65.816,0.861886
65.817,0.861918
65.818,0.861949
65.819,0.861980
65.820,0.862012
65.821,0.862043
65.822,0.862075
65.823,0.862106
65.824,0.862137
65.825,0.862169
65.826,0.862200
65.827,0.862231
65.828,0.862263
65.829,0.862294
65.830,0.862325
65.831,0.862357
65.832,0.862388
65.833,0.862420
65.834,0.862451
65.835,0.862482
65.836,0.862514
65.837,0.862545
65.838,0.862576
65.839,0.862608
65.840,0.862639
65.841,0.862670
65.842,0.862702
65.843,0.862733
65.844,0.862764
65.845,0.862795
65.846,0.862827
65.847,0.862858
65.848,0.862889
65.849,0.862921
65.850,0.862952
65.851,0.862983
65.852,0.863015
65.853,0.863046
65.854,0.863077
65.855,0.863108
65.856,0.863140
65.857,0.863171
65.858,0.863202
65.859,0.863233
65.860,0.863265
65.861,0.863296
65.862,0.863327
65.863,0.863358
65.864,0.863390
65.865,0.863421
65.866,0.863452
65.867,0.863483
65.868,0.863515
65.869,0.863546
65.870,0.863577
65.871,0.863608
65.872,0.863640
65.873,0.863671
65.874,0.863702
65.875,0.863733
65.876,0.863764
65.877,0.863796
65.878,0.863827
65.879,0.863858
65.880,0.863889
65.881,0.863920
65.882,0.863952
65.883,0.863983
65.884,0.864014
65.885,0.864045
65.886,0.864076
65.887,0.864107
65.888,0.864139
65.889,0.864170
65.890,0.864201
65.891,0.864232
65.892,0.864263
65.893,0.864294
65.894,0.864326
65.895,0.864357
65.896,0.864388
65.897,0.864419
65.898,0.864450
65.899,0.864481
65.900,0.864512
65.901,0.864544
65.902,0.864575
65.903,0.864606
65.904,0.864637
65.905,0.864668
65.906,0.864699
65.907,0.864730
65.908,0.864761
65.909,0.864793
65.910,0.864824
65.911,0.864855
65.912,0.864886
65.913,0.864917
65.914,0.864948
65.915,0.864979
65.916,0.865010
65.917,0.865041
65.918,0.865072
65.919,0.865103
65.920,0.865134
65.921,0.865166
65.922,0.865197
65.923,0.865228
65.924,0.865259
65.925,0.865290
65.926,0.865321
65.927,0.865352
65.928,0.865383
65.929,0.865414
65.930,0.865445
65.931,0.865476
65.932,0.865507
65.933,0.865538
65.934,0.865569
65.935,0.865600
65.936,0.865631
65.937,0.865662
65.938,0.865693
65.939,0.865724
65.940,0.865755
65.941,0.865786
65.942,0.865817
65.943,0.865848
65.944,0.865879
65.945,0.865910
65.946,0.865941
65.947,0.865972
65.948,0.866003
65.949,0.866034
65.950,0.866065
65.951,0.866096
65.952,0.866127
65.953,0.866158
65.954,0.866189
65.955,0.866220
65.956,0.866251
65.957,0.866282
65.958,0.866313
65.959,0.866344
65.960,0.866375
65.961,0.866406
65.962,0.866437
65.963,0.866468
65.964,0.866499
65.965,0.866529
65.966,0.866560
65.967,0.866591
65.968,0.866622
65.969,0.866653
65.970,0.866684
65.971,0.866715
65.972,0.866746
65.973,0.866777
65.974,0.866808
65.975,0.866839
65.976,0.866870
65.977,0.866900
65.978,0.866931
65.979,0.866962
65.980,0.866993
65.981,0.867024
65.982,0.867055
65.983,0.867086
65.984,0.867117
65.985,0.867147
65.986,0.867178
65.987,0.867209
65.988,0.867240
65.989,0.867271
65.990,0.867302
65.991,0.867333
65.992,0.867363
65.993,0.867394
65.994,0.867425
65.995,0.867456
65.996,0.867487
65.997,0.867518
65.998,0.867549
65.999,0.867579
66.000,0.867610
66.001,0.867641
66.002,0.867672
66.003,0.867703
66.004,0.867733
66.005,0.867764
66.006,0.867795
66.007,0.867826
66.008,0.867857
66.009,0.867887
66.010,0.867918
66.011,0.867949
66.012,0.867980
66.013,0.868011
66.014,0.868041
66.015,0.868072
66.016,0.868103
66.017,0.868134
66.018,0.868165
66.019,0.868195
66.020,0.868226
66.021,0.868257
66.022,0.868288
66.023,0.868318
66.024,0.868349
66.025,0.868380
66.026,0.868411
66.027,0.868441
66.028,0.868472
66.029,0.868503
66.030,0.868534
66.031,0.868564
66.032,0.868595
66.033,0.868626
66.034,0.868657
66.035,0.868687
66.036,0.868718
66.037,0.868749
66.038,0.868779
66.039,0.868810
66.040,0.868841
66.041,0.868872
66.042,0.868902
66.043,0.868933
66.044,0.868964
66.045,0.868994
66.046,0.869025
66.047,0.869056
66.048,0.869086
66.049,0.869117
66.050,0.869148
66.051,0.869178
66.052,0.869209
66.053,0.869240
66.054,0.869270
66.055,0.869301
66.056,0.869332
66.057,0.869362
66.058,0.869393
66.059,0.869424
66.060,0.869454
66.061,0.869485
66.062,0.869516
66.063,0.869546
66.064,0.869577
66.065,0.869608
66.066,0.869638
66.067,0.869669
66.068,0.869699
66.069,0.869730
66.070,0.869761
66.071,0.869791
66.072,0.869822
66.073,0.869853
66.074,0.869883
66.075,0.869914
66.076,0.869944
66.077,0.869975
66.078,0.870006
66.079,0.870036
66.080,0.870067
66.081,0.870097
66.082,0.870128
66.083,0.870159
66.084,0.870189
66.085,0.870220
66.086,0.870250
66.087,0.870281
66.088,0.870311
66.089,0.870342
66.090,0.870373
66.091,0.870403
66.092,0.870434
66.093,0.870464
66.094,0.870495
66.095,0.870525
66.096,0.870556
66.097,0.870586
66.098,0.870617
66.099,0.870647
66.100,0.870678
66.101,0.870709
66.102,0.870739
66.103,0.870770
66.104,0.870800
66.105,0.870831
66.106,0.870861
66.107,0.870892
66.108,0.870922
66.109,0.870953
66.110,0.870983
66.111,0.871014
66.112,0.871044
66.113,0.871075
66.114,0.871105
66.115,0.871136
66.116,0.871166
66.117,0.871197
66.118,0.871227
66.119,0.871258
66.120,0.871288
66.121,0.871319
66.122,0.871349
66.123,0.871380
66.124,0.871410
66.125,0.871440
66.126,0.871471
66.127,0.871501
66.128,0.871532
66.129,0.871562
66.130,0.871593
66.131,0.871623
66.132,0.871654
66.133,0.871684
66.134,0.871714
66.135,0.871745
66.136,0.871775
66.137,0.871806
66.138,0.871836
66.139,0.871867
66.140,0.871897
66.141,0.871927
66.142,0.871958
66.143,0.871988
66.144,0.872019
66.145,0.872049
66.146,0.872080
66.147,0.872110
66.148,0.872140
66.149,0.872171
66.150,0.872201
66.151,0.872232
66.152,0.872262
66.153,0.872292
66.154,0.872323
66.155,0.872353
66.156,0.872383
66.157,0.872414
66.158,0.872444
66.159,0.872475
66.160,0.872505
66.161,0.872535
66.162,0.872566
66.163,0.872596
66.164,0.872626
66.165,0.872657
66.166,0.872687
66.167,0.872717
66.168,0.872748
66.169,0.872778
66.170,0.872808
66.171,0.872839
66.172,0.872869
66.173,0.872899
66.174,0.872930
66.175,0.872960
66.176,0.872990
66.177,0.873021
66.178,0.873051
66.179,0.873081
66.180,0.873112
66.181,0.873142
66.182,0.873172
66.183,0.873203
66.184,0.873233
66.185,0.873263
66.186,0.873294
66.187,0.873324
66.188,0.873354
66.189,0.873384
66.190,0.873415
66.191,0.873445
66.192,0.873475
66.193,0.873506
66.194,0.873536
66.195,0.873566
66.196,0.873596
66.197,0.873627
66.198,0.873657
66.199,0.873687
66.200,0.873717
66.201,0.873748
66.202,0.873778
66.203,0.873808
66.204,0.873838
66.205,0.873869
66.206,0.873899
66.207,0.873929
66.208,0.873959
66.209,0.873990
66.210,0.874020
66.211,0.874050
66.212,0.874080
66.213,0.874110
66.214,0.874141
66.215,0.874171
66.216,0.874201
66.217,0.874231
66.218,0.874262
66.219,0.874292
66.220,0.874322
66.221,0.874352
66.222,0.874382
66.223,0.874413
66.224,0.874443
66.225,0.874473
66.226,0.874503
66.227,0.874533
66.228,0.874564
66.229,0.874594
66.230,0.874624
66.231,0.874654
66.232,0.874684
66.233,0.874714
66.234,0.874745
66.235,0.874775
66.236,0.874805
66.237,0.874835
66.238,0.874865
66.239,0.874895
66.240,0.874926
66.241,0.874956
66.242,0.874986
66.243,0.875016
66.244,0.875046
66.245,0.875076
66.246,0.875106
66.247,0.875136
