Angle,Reflectance
65.000,0.915534
65.001,0.915489
65.002,0.915443
65.003,0.915397
65.004,0.915351
65.005,0.915306
65.006,0.915260
65.007,0.915214
65.008,0.915168
65.009,0.915122
65.010,0.915076
65.011,0.915030
65.012,0.914984
65.013,0.914938
65.014,0.914891
65.015,0.914845
65.016,0.914799
65.017,0.914753
65.018,0.914706
65.019,0.914660
65.020,0.914614
65.021,0.914567
65.022,0.914521
65.023,0.914474
65.024,0.914427
65.025,0.914381
65.026,0.914334
65.027,0.914288
65.028,0.914241
65.029,0.914194
65.030,0.914147
65.031,0.914100
65.032,0.914053
65.033,0.914006
65.034,0.913959
65.035,0.913912
65.036,0.913865
65.037,0.913818
65.038,0.913771
65.039,0.913724
65.040,0.913677
65.041,0.913629
65.042,0.913582
65.043,0.913535
65.044,0.913487
65.045,0.913440
65.046,0.913392
65.047,0.913345
65.048,0.913297
65.049,0.913250
65.050,0.913202
65.051,0.913154
65.052,0.913107
65.053,0.913059
65.054,0.913011
65.055,0.912963
65.056,0.912915
65.057,0.912867
65.058,0.912820
65.059,0.912772
65.060,0.912723
65.061,0.912675
65.062,0.912627
65.063,0.912579
65.064,0.912531
65.065,0.912483
65.066,0.912434
65.067,0.912386
65.068,0.912337
65.069,0.912289
65.070,0.912241
65.071,0.912192
65.072,0.912143
65.073,0.912095
65.074,0.912046
65.075,0.911998
65.076,0.911949
65.077,0.911900
65.078,0.911851
65.079,0.911802
65.080,0.911753
65.081,0.911705
65.082,0.911656
65.083,0.911606
65.084,0.911557
65.085,0.911508
65.086,0.911459
65.087,0.911410
65.088,0.911361
65.089,0.911311
65.090,0.911262
65.091,0.911213
65.092,0.911163
65.093,0.911114
65.094,0.911064
65.095,0.911015
65.096,0.910965
65.097,0.910916
65.098,0.910866
65.099,0.910816
65.100,0.910766
65.101,0.910717
65.102,0.910667
65.103,0.910617
65.104,0.910567
65.105,0.910517
65.106,0.910467
65.107,0.910417
65.108,0.910367
65.109,0.910316
65.110,0.910266
65.111,0.910216
65.112,0.910166
65.113,0.910115
65.114,0.910065
65.115,0.910015
65.116,0.909964
65.117,0.909914
65.118,0.909863
65.119,0.909812
65.120,0.909762
65.121,0.909711
65.122,0.909660
65.123,0.909610
65.124,0.909559
65.125,0.909508
65.126,0.909457
65.127,0.909406
65.128,0.909355
65.129,0.909304
65.130,0.909253
65.131,0.909202
65.132,0.909150
65.133,0.909099
65.134,0.909048
65.135,0.908997
65.136,0.908945
65.137,0.908894
65.138,0.908842
65.139,0.908791
65.140,0.908739
65.141,0.908688
65.142,0.908636
65.143,0.908584
65.144,0.908533
65.145,0.908481
65.146,0.908429
65.147,0.908377
65.148,0.908325
65.149,0.908273
65.150,0.908221
65.151,0.908169
65.152,0.908117
65.153,0.908065
65.154,0.908013
65.155,0.907960
65.156,0.907908
65.157,0.907856
65.158,0.907803
65.159,0.907751
65.160,0.907699
65.161,0.907646
65.162,0.907593
65.163,0.907541
65.164,0.907488
65.165,0.907435
65.166,0.907383
65.167,0.907330
65.168,0.907277
65.169,0.907224
65.170,0.907171
65.171,0.907118
65.172,0.907065
65.173,0.907012
65.174,0.906959
65.175,0.906906
65.176,0.906853
65.177,0.906799
65.178,0.906746
65.179,0.906693
65.180,0.906639
65.181,0.906586
65.182,0.906532
65.183,0.906479
65.184,0.906425
65.185,0.906371
65.186,0.906318
65.187,0.906264
65.188,0.906210
65.189,0.906156
65.190,0.906102
65.191,0.906048
65.192,0.905994
65.193,0.905940
65.194,0.905886
65.195,0.905832
65.196,0.905778
65.197,0.905724
65.198,0.905669
65.199,0.905615
65.200,0.905561
65.201,0.905506
65.202,0.905452
65.203,0.905397
65.204,0.905343
65.205,0.905288
65.206,0.905233
65.207,0.905179
65.208,0.905124
65.209,0.905069
65.210,0.905014
65.211,0.904959
65.212,0.904904
65.213,0.904849
65.214,0.904794
65.215,0.904739
65.216,0.904684
65.217,0.904629
65.218,0.904573
65.219,0.904518
65.220,0.904463
65.221,0.904407
65.222,0.904352
65.223,0.904296
65.224,0.904241
65.225,0.904185
65.226,0.904129
65.227,0.904074
65.228,0.904018
65.229,0.903962
65.230,0.903906
65.231,0.903850
65.232,0.903794
65.233,0.903738
65.234,0.903682
65.235,0.903626
65.236,0.903570
65.237,0.903514
65.238,0.903457
65.239,0.903401
65.240,0.903345
65.241,0.903288
65.242,0.903232
65.243,0.903175
65.244,0.903119
65.245,0.903062
65.246,0.903005
65.247,0.902949
65.248,0.902892
65.249,0.902835
65.250,0.902778
65.251,0.902721
65.252,0.902664
65.253,0.902607
65.254,0.902550
65.255,0.902493
65.256,0.902436
65.257,0.902378
65.258,0.902321
65.259,0.902264
65.260,0.902206
65.261,0.902149
65.262,0.902091
65.263,0.902034
65.264,0.901976
65.265,0.901919
65.266,0.901861
65.267,0.901803
65.268,0.901745
65.269,0.901687
65.270,0.901629
65.271,0.901571
65.272,0.901513
65.273,0.901455
65.274,0.901397
65.275,0.901339
65.276,0.901281
65.277,0.901222
65.278,0.901164
65.279,0.901106
65.280,0.901047
65.281,0.900989
65.282,0.900930
65.283,0.900871
65.284,0.900813
65.285,0.900754
65.286,0.900695
65.287,0.900636
65.288,0.900578
65.289,0.900519
65.290,0.900460
65.291,0.900401
65.292,0.900341
65.293,0.900282
65.294,0.900223
65.295,0.900164
65.296,0.900105
65.297,0.900045
65.298,0.899986
65.299,0.899926
65.300,0.899867
65.301,0.899807
65.302,0.899747
65.303,0.899688
65.304,0.899628
65.305,0.899568
65.306,0.899508
65.307,0.899448
65.308,0.899388
65.309,0.899328
65.310,0.899268
65.311,0.899208
65.312,0.899148
65.313,0.899088
65.314,0.899027
65.315,0.898967
65.316,0.898907
65.317,0.898846
65.318,0.898786
65.319,0.898725
65.320,0.898664
65.321,0.898604
65.322,0.898543
65.323,0.898482
65.324,0.898421
65.325,0.898360
65.326,0.898299
65.327,0.898238
65.328,0.898177
65.329,0.898116
65.330,0.898055
65.331,0.897994
65.332,0.897932
65.333,0.897871
65.334,0.897810
65.335,0.897748
65.336,0.897687
65.337,0.897625
65.338,0.897563
65.339,0.897502
65.340,0.897440
65.341,0.897378
65.342,0.897316
65.343,0.897254
65.344,0.897192
65.345,0.897130
65.346,0.897068
65.347,0.897006
65.348,0.896944
65.349,0.896882
65.350,0.896819
65.351,0.896757
65.352,0.896694
65.353,0.896632
65.354,0.896569
65.355,0.896507
65.356,0.896444
65.357,0.896381
65.358,0.896318
65.359,0.896256
65.360,0.896193
65.361,0.896130
65.362,0.896067
65.363,0.896004
65.364,0.895940
65.365,0.895877
65.366,0.895814
65.367,0.895751
65.368,0.895687
65.369,0.895624
65.370,0.895560
65.371,0.895497
65.372,0.895433
65.373,0.895370
65.374,0.895306
65.375,0.895242
65.376,0.895178
65.377,0.895114
65.378,0.895050
65.379,0.894986
65.380,0.894922
65.381,0.894858
65.382,0.894794
65.383,0.894730
65.384,0.894665
65.385,0.894601
65.386,0.894536
65.387,0.894472
65.388,0.894407
65.389,0.894343
65.390,0.894278
65.391,0.894213
65.392,0.894148
65.393,0.894084
65.394,0.894019
65.395,0.893954
65.396,0.893889
65.397,0.893824
65.398,0.893758
65.399,0.893693
65.400,0.893628
65.401,0.893563
65.402,0.893497
65.403,0.893432
65.404,0.893366
65.405,0.893301
65.406,0.893235
65.407,0.893169
65.408,0.893103
65.409,0.893038
65.410,0.892972
65.411,0.892906
65.412,0.892840
65.413,0.892774
65.414,0.892707
65.415,0.892641
65.416,0.892575
65.417,0.892509
65.418,0.892442
65.419,0.892376
65.420,0.892309
65.421,0.892243
65.422,0.892176
65.423,0.892109
65.424,0.892043
65.425,0.891976
65.426,0.891909
65.427,0.891842
65.428,0.891775
65.429,0.891708
65.430,0.891641
65.431,0.891573
65.432,0.891506
65.433,0.891439
65.434,0.891371
65.435,0.891304
65.436,0.891236
65.437,0.891169
65.438,0.891101
65.439,0.891034
65.440,0.890966
65.441,0.890898
65.442,0.890830
65.443,0.890762
65.444,0.890694
65.445,0.890626
65.446,0.890558
65.447,0.890490
65.448,0.890421
65.449,0.890353
65.450,0.890285
65.451,0.890216
65.452,0.890147
65.453,0.890079
65.454,0.890010
65.455,0.889941
65.456,0.889873
65.457,0.889804
65.458,0.889735
65.459,0.889666
65.460,0.889597
65.461,0.889528
65.462,0.889459
65.463,0.889389
65.464,0.889320
65.465,0.889251
65.466,0.889181
65.467,0.889112
65.468,0.889042
65.469,0.888972
65.470,0.888903
65.471,0.888833
65.472,0.888763
65.473,0.888693
65.474,0.888623
65.475,0.888553
65.476,0.888483
65.477,0.888413
65.478,0.888343
65.479,0.888272
65.480,0.888202
65.481,0.888132
65.482,0.888061
65.483,0.887990
65.484,0.887920
65.485,0.887849
65.486,0.887778
65.487,0.887708
65.488,0.887637
65.489,0.887566
65.490,0.887495
65.491,0.887424
65.492,0.887352
65.493,0.887281
65.494,0.887210
65.495,0.887138
65.496,0.887067
65.497,0.886995
65.498,0.886924
65.499,0.886852
65.500,0.886781
65.501,0.886709
65.502,0.886637
65.503,0.886565
65.504,0.886493
65.505,0.886421
65.506,0.886349
65.507,0.886277
65.508,0.886204
65.509,0.886132
65.510,0.886060
65.511,0.885987
65.512,0.885915
65.513,0.885842
65.514,0.885769
65.515,0.885697
65.516,0.885624
65.517,0.885551
65.518,0.885478
65.519,0.885405
65.520,0.885332
65.521,0.885259
65.522,0.885186
65.523,0.885112
65.524,0.885039
65.525,0.884966
65.526,0.884892
65.527,0.884818
65.528,0.884745
65.529,0.884671
65.530,0.884597
65.531,0.884523
65.532,0.884450
65.533,0.884376
65.534,0.884301
65.535,0.884227
65.536,0.884153
65.537,0.884079
65.538,0.884005
65.539,0.883930
65.540,0.883856
65.541,0.883781
65.542,0.883706
65.543,0.883632
65.544,0.883557
65.545,0.883482
65.546,0.883407
65.547,0.883332
65.548,0.883257
65.549,0.883182
65.550,0.883107
65.551,0.883032
65.552,0.882956
65.553,0.882881
65.554,0.882805
65.555,0.882730
65.556,0.882654
65.557,0.882578
65.558,0.882503
65.559,0.882427
65.560,0.882351
65.561,0.882275
65.562,0.882199
65.563,0.882123
65.564,0.882047
65.565,0.881970
65.566,0.881894
65.567,0.881817
65.568,0.881741
65.569,0.881664
65.570,0.881588
65.571,0.881511
65.572,0.881434
65.573,0.881357
65.574,0.881280
65.575,0.881203
65.576,0.881126
65.577,0.881049
65.578,0.880972
65.579,0.880895
65.580,0.880817
65.581,0.880740
65.582,0.880662
65.583,0.880585
65.584,0.880507
65.585,0.880429
65.586,0.880351
65.587,0.880274
65.588,0.880196
65.589,0.880117
65.590,0.880039
65.591,0.879961
65.592,0.879883
65.593,0.879805
65.594,0.879726
65.595,0.879648
65.596,0.879569
65.597,0.879490
65.598,0.879412
65.599,0.879333
65.600,0.879254
65.601,0.879175
65.602,0.879096
65.603,0.879017
65.604,0.878938
65.605,0.878858
65.606,0.878779
65.607,0.878700
65.608,0.878620
65.609,0.878541
65.610,0.878461
65.611,0.878381
65.612,0.878301
65.613,0.878222
65.614,0.878142
65.615,0.878062
65.616,0.877982
65.617,0.877901
65.618,0.877821
65.619,0.877741
65.620,0.877660
65.621,0.877580
65.622,0.877499
65.623,0.877419
65.624,0.877338
65.625,0.877257
65.626,0.877176
65.627,0.877095
65.628,0.877014
65.629,0.876933
65.630,0.876852
65.631,0.876771
65.632,0.876689
65.633,0.876608
65.634,0.876526
65.635,0.876445
65.636,0.876363
65.637,0.876281
65.638,0.876200
65.639,0.876118
65.640,0.876036
65.641,0.875954
65.642,0.875872
65.643,0.875789
65.644,0.875707
65.645,0.875625
65.646,0.875542
65.647,0.875460
65.648,0.875377
65.649,0.875294
65.650,0.875212
65.651,0.875129
65.652,0.875046
65.653,0.874963
65.654,0.874880
65.655,0.874797
65.656,0.874713
65.657,0.874630
65.658,0.874547
65.659,0.874463
65.660,0.874380
65.661,0.874296
65.662,0.874212
65.663,0.874128
65.664,0.874045
65.665,0.873961
65.666,0.873877
65.667,0.873792
65.668,0.873708
65.669,0.873624
65.670,0.873539
65.671,0.873455
65.672,0.873370
65.673,0.873286
65.674,0.873201
65.675,0.873116
65.676,0.873031
65.677,0.872947
65.678,0.872861
65.679,0.872776
65.680,0.872691
65.681,0.872606
65.682,0.872520
65.683,0.872435
65.684,0.872350
65.685,0.872264
65.686,0.872178
65.687,0.872092
65.688,0.872007
65.689,0.871921
65.690,0.871835
65.691,0.871748
65.692,0.871662
65.693,0.871576
65.694,0.871490
65.695,0.871403
65.696,0.871317
65.697,0.871230
65.698,0.871143
65.699,0.871057
65.700,0.870970
65.701,0.870883
65.702,0.870796
65.703,0.870709
65.704,0.870621
65.705,0.870534
65.706,0.870447
65.707,0.870359
65.708,0.870272
65.709,0.870184
65.710,0.870096
65.711,0.870009
65.712,0.869921
65.713,0.869833
65.714,0.869745
65.715,0.869656
65.716,0.869568
65.717,0.869480
65.718,0.869392
65.719,0.869303
65.720,0.869214
65.721,0.869126
65.722,0.869037
65.723,0.868948
65.724,0.868859
65.725,0.868770
65.726,0.868681
65.727,0.868592
65.728,0.868503
65.729,0.868413
65.730,0.868324
65.731,0.868234
65.732,0.868145
65.733,0.868055
65.734,0.867965
65.735,0.867875
65.736,0.867786
65.737,0.867695
65.738,0.867605
65.739,0.867515
65.740,0.867425
65.741,0.867334
65.742,0.867244
65.743,0.867153
65.744,0.867063
65.745,0.866972
65.746,0.866881
65.747,0.866790
65.748,0.866699
65.749,0.866608
65.750,0.866517
65.751,0.866426
65.752,0.866334
65.753,0.866243
65.754,0.866151
65.755,0.866060
65.756,0.865968
65.757,0.865876
65.758,0.865784
65.759,0.865692
65.760,0.865600
65.761,0.865508
65.762,0.865416
65.763,0.865323
65.764,0.865231
65.765,0.865138
65.766,0.865046
65.767,0.864953
65.768,0.864860
65.769,0.864767
65.770,0.864674
65.771,0.864581
65.772,0.864488
65.773,0.864395
65.774,0.864301
65.775,0.864208
65.776,0.864114
65.777,0.864021
65.778,0.863927
65.779,0.863833
65.780,0.863739
65.781,0.863645
65.782,0.863551
65.783,0.863457
65.784,0.863363
65.785,0.863268
65.786,0.863174
65.787,0.863079
65.788,0.862985
65.789,0.862890
65.790,0.862795
65.791,0.862700
65.792,0.862605
65.793,0.862510
65.794,0.862415
65.795,0.862320
65.796,0.862224
65.797,0.862129
65.798,0.862033
65.799,0.861938
65.800,0.861842
65.801,0.861746
65.802,0.861650
65.803,0.861554
65.804,0.861458
65.805,0.861362
65.806,0.861265
65.807,0.861169
65.808,0.861072
65.809,0.860976
65.810,0.860879
65.811,0.860782
65.812,0.860685
65.813,0.860588
65.814,0.860491
65.815,0.860394
65.816,0.860297
65.817,0.860200
65.818,0.860102
65.819,0.860005
65.820,0.859907
65.821,0.859809
65.822,0.859711
65.823,0.859613
65.824,0.859515
65.825,0.859417
65.826,0.859319
65.827,0.859221
65.828,0.859122
65.829,0.859024
65.830,0.858925
65.831,0.858827
65.832,0.858728
65.833,0.858629
65.834,0.858530
65.835,0.858431
65.836,0.858332
65.837,0.858232
65.838,0.858133
65.839,0.858033
65.840,0.857934
65.841,0.857834
65.842,0.857734
65.843,0.857635
65.844,0.857535
65.845,0.857435
65.846,0.857334
65.847,0.857234
65.848,0.857134
65.849,0.857033
65.850,0.856933
65.851,0.856832
65.852,0.856731
65.853,0.856631
65.854,0.856530
65.855,0.856429
65.856,0.856327
65.857,0.856226
65.858,0.856125
65.859,0.856023
65.860,0.855922
65.861,0.855820
65.862,0.855718
65.863,0.855617
65.864,0.855515
65.865,0.855413
65.866,0.855311
65.867,0.855208
65.868,0.855106
65.869,0.855004
65.870,0.854901
65.871,0.854798
65.872,0.854696
65.873,0.854593
65.874,0.854490
65.875,0.854387
65.876,0.854284
65.877,0.854180
65.878,0.854077
65.879,0.853974
65.880,0.853870
65.881,0.853766
65.882,0.853663
65.883,0.853559
65.884,0.853455
65.885,0.853351
65.886,0.853247
65.887,0.853142
65.888,0.853038
65.889,0.852934
65.890,0.852829
65.891,0.852724
65.892,0.852620
65.893,0.852515
65.894,0.852410
65.895,0.852305
65.896,0.852199
65.897,0.852094
65.898,0.851989
65.899,0.851883
65.900,0.851778
65.901,0.851672
65.902,0.851566
65.903,0.851460
65.904,0.851354
65.905,0.851248
65.906,0.851142
65.907,0.851036
65.908,0.850929
65.909,0.850823
65.910,0.850716
65.911,0.850609
65.912,0.850502
65.913,0.850395
65.914,0.850288
65.915,0.850181
65.916,0.850074
65.917,0.849967
65.918,0.849859
65.919,0.849752
65.920,0.849644
65.921,0.849536
65.922,0.849428
65.923,0.849320
65.924,0.849212
65.925,0.849104
65.926,0.848996
65.927,0.848887
65.928,0.848779
65.929,0.848670
65.930,0.848561
65.931,0.848452
65.932,0.848343
65.933,0.848234
65.934,0.848125
65.935,0.848016
65.936,0.847907
65.937,0.847797
65.938,0.847688
65.939,0.847578
65.940,0.847468
65.941,0.847358
65.942,0.847248
65.943,0.847138
65.944,0.847028
65.945,0.846917
65.946,0.846807
65.947,0.846696
65.948,0.846586
65.949,0.846475
65.950,0.846364
65.951,0.846253
65.952,0.846142
65.953,0.846031
65.954,0.845919
65.955,0.845808
65.956,0.845696
65.957,0.845585
65.958,0.845473
65.959,0.845361
65.960,0.845249
65.961,0.845137
65.962,0.845025
65.963,0.844913
65.964,0.844800
65.965,0.844688
65.966,0.844575
65.967,0.844462
65.968,0.844349
65.969,0.844236
65.970,0.844123
65.971,0.844010
65.972,0.843897
65.973,0.843783
65.974,0.843670
65.975,0.843556
65.976,0.843443
65.977,0.843329
65.978,0.843215
65.979,0.843101
65.980,0.842986
65.981,0.842872
65.982,0.842758
65.983,0.842643
65.984,0.842529
65.985,0.842414
65.986,0.842299
65.987,0.842184
65.988,0.842069
65.989,0.841954
65.990,0.841838
65.991,0.841723
65.992,0.841607
65.993,0.841492
65.994,0.841376
65.995,0.841260
65.996,0.841144
65.997,0.841028
65.998,0.840912
65.999,0.840796
66.000,0.840679
66.001,0.840563
66.002,0.840446
66.003,0.840329
66.004,0.840212
66.005,0.840095
66.006,0.839978
66.007,0.839861
66.008,0.839744
66.009,0.839626
66.010,0.839509
66.011,0.839391
66.012,0.839273
66.013,0.839155
66.014,0.839037
66.015,0.838919
66.016,0.838801
66.017,0.838682
66.018,0.838564
66.019,0.838445
66.020,0.838327
66.021,0.838208
66.022,0.838089
66.023,0.837970
66.024,0.837851
66.025,0.837731
66.026,0.837612
66.027,0.837492
66.028,0.837373
66.029,0.837253
66.030,0.837133
66.031,0.837013
66.032,0.836893
66.033,0.836773
66.034,0.836652
66.035,0.836532
66.036,0.836411
66.037,0.836291
66.038,0.836170
66.039,0.836049
66.040,0.835928
66.041,0.835807
66.042,0.835685
66.043,0.835564
66.044,0.835442
66.045,0.835321
66.046,0.835199
66.047,0.835077
66.048,0.834955
66.049,0.834833
66.050,0.834711
66.051,0.834588
66.052,0.834466
66.053,0.834343
66.054,0.834221
66.055,0.834098
66.056,0.833975
66.057,0.833852
66.058,0.833729
66.059,0.833605
66.060,0.833482
66.061,0.833358
66.062,0.833235
66.063,0.833111
66.064,0.832987
66.065,0.832863
66.066,0.832739
66.067,0.832615
66.068,0.832490
66.069,0.832366
66.070,0.832241
66.071,0.832116
66.072,0.831992
66.073,0.831867
66.074,0.831741
66.075,0.831616
66.076,0.831491
66.077,0.831365
66.078,0.831240
66.079,0.831114
66.080,0.830988
66.081,0.830862
66.082,0.830736
66.083,0.830610
66.084,0.830484
66.085,0.830357
66.086,0.830231
66.087,0.830104
66.088,0.829977
66.089,0.829850
66.090,0.829723
66.091,0.829596
66.092,0.829469
66.093,0.829342
66.094,0.829214
66.095,0.829086
66.096,0.828959
66.097,0.828831
66.098,0.828703
66.099,0.828574
66.100,0.828446
66.101,0.828318
66.102,0.828189
66.103,0.828061
66.104,0.827932
66.105,0.827803
66.106,0.827674
66.107,0.827545
66.108,0.827416
66.109,0.827286
66.110,0.827157
66.111,0.827027
66.112,0.826897
66.113,0.826767
66.114,0.826637
66.115,0.826507
66.116,0.826377
66.117,0.826247
66.118,0.826116
66.119,0.825986
66.120,0.825855
66.121,0.825724
66.122,0.825593
66.123,0.825462
66.124,0.825330
66.125,0.825199
66.126,0.825068
66.127,0.824936
66.128,0.824804
66.129,0.824672
66.130,0.824540
66.131,0.824408
66.132,0.824276
66.133,0.824144
66.134,0.824011
66.135,0.823878
66.136,0.823746
66.137,0.823613
66.138,0.823480
66.139,0.823347
66.140,0.823213
66.141,0.823080
66.142,0.822946
66.143,0.822813
66.144,0.822679
66.145,0.822545
66.146,0.822411
66.147,0.822277
66.148,0.822143
66.149,0.822008
66.150,0.821874
66.151,0.821739
66.152,0.821604
66.153,0.821469
66.154,0.821334
66.155,0.821199
66.156,0.821064
66.157,0.820928
66.158,0.820793
66.159,0.820657
66.160,0.820521
66.161,0.820385
66.162,0.820249
66.163,0.820113
66.164,0.819976
66.165,0.819840
66.166,0.819703
66.167,0.819567
66.168,0.819430
66.169,0.819293
66.170,0.819156
66.171,0.819018
66.172,0.818881
66.173,0.818743
66.174,0.818606
66.175,0.818468
66.176,0.818330
66.177,0.818192
66.178,0.818054
66.179,0.817916
66.180,0.817777
66.181,0.817639
66.182,0.817500
66.183,0.817361
66.184,0.817222
66.185,0.817083
66.186,0.816944
66.187,0.816805
66.188,0.816665
66.189,0.816526
66.190,0.816386
66.191,0.816246
66.192,0.816106
66.193,0.815966
66.194,0.815826
66.195,0.815685
66.196,0.815545
66.197,0.815404
66.198,0.815263
66.199,0.815122
66.200,0.814981
66.201,0.814840
66.202,0.814699
66.203,0.814557
66.204,0.814416
66.205,0.814274
66.206,0.814132
66.207,0.813990
66.208,0.813848
66.209,0.813706
66.210,0.813564
66.211,0.813421
66.212,0.813279
66.213,0.813136
66.214,0.812993
66.215,0.812850
66.216,0.812707
66.217,0.812563
66.218,0.812420
66.219,0.812276
66.220,0.812133
66.221,0.811989
66.222,0.811845
66.223,0.811701
66.224,0.811557
66.225,0.811412
66.226,0.811268
66.227,0.811123
66.228,0.810978
66.229,0.810833
66.230,0.810688
66.231,0.810543
66.232,0.810398
66.233,0.810253
66.234,0.810107
66.235,0.809961
66.236,0.809815
66.237,0.809669
66.238,0.809523
66.239,0.809377
66.240,0.809231
66.241,0.809084
66.242,0.808938
66.243,0.808791
66.244,0.808644
66.245,0.808497
66.246,0.808350
66.247,0.808202
