Angle,Reflectance
65.000,0.664433
65.001,0.664534
65.002,0.664635
65.003,0.664736
65.004,0.664837
65.005,0.664937
65.006,0.665038
65.007,0.665139
65.008,0.665240
65.009,0.665341
65.010,0.665443
65.011,0.665544
65.012,0.665645
65.013,0.665746
65.014,0.665847
65.015,0.665948
65.016,0.666050
65.017,0.666151
65.018,0.666252
65.019,0.666354
65.020,0.666455
65.021,0.666557
65.022,0.666658
65.023,0.666760
65.024,0.666861
65.025,0.666963
65.026,0.667065
65.027,0.667166
65.028,0.667268
65.029,0.667370
65.030,0.667471
65.031,0.667573
65.032,0.667675
65.033,0.667777
65.034,0.667879
65.035,0.667981
65.036,0.668083
65.037,0.668185
65.038,0.668287
65.039,0.668389
65.040,0.668491
65.041,0.668593
65.042,0.668695
65.043,0.668797
65.044,0.668900
65.045,0.669002
65.046,0.669104
65.047,0.669207
65.048,0.669309
65.049,0.669412
65.050,0.669514
65.051,0.669616
65.052,0.669719
65.053,0.669822
65.054,0.669924
65.055,0.670027
65.056,0.670130
65.057,0.670232
65.058,0.670335
65.059,0.670438
65.060,0.670541
65.061,0.670643
65.062,0.670746
65.063,0.670849
65.064,0.670952
65.065,0.671055
65.066,0.671158
65.067,0.671261
65.068,0.671364
65.069,0.671468
65.070,0.671571
65.071,0.671674
65.072,0.671777
65.073,0.671881
65.074,0.671984
65.075,0.672087
65.076,0.672191
65.077,0.672294
65.078,0.672398
65.079,0.672501
65.080,0.672605
65.081,0.672708
65.082,0.672812
65.083,0.672916
65.084,0.673019
65.085,0.673123
65.086,0.673227
65.087,0.673331
65.088,0.673434
65.089,0.673538
65.090,0.673642
65.091,0.673746
65.092,0.673850
65.093,0.673954
65.094,0.674058
65.095,0.674163
65.096,0.674267
65.097,0.674371
65.098,0.674475
65.099,0.674579
65.100,0.674684
65.101,0.674788
65.102,0.674892
65.103,0.674997
65.104,0.675101
65.105,0.675206
65.106,0.675310
65.107,0.675415
65.108,0.675520
65.109,0.675624
65.110,0.675729
65.111,0.675834
65.112,0.675939
65.113,0.676043
65.114,0.676148
65.115,0.676253
65.116,0.676358
65.117,0.676463
65.118,0.676568
65.119,0.676673
65.120,0.676778
65.121,0.676883
65.122,0.676988
65.123,0.677094
65.124,0.677199
65.125,0.677304
65.126,0.677410
65.127,0.677515
65.128,0.677620
65.129,0.677726
65.130,0.677831
65.131,0.677937
65.132,0.678042
65.133,0.678148
65.134,0.678254
65.135,0.678359
65.136,0.678465
65.137,0.678571
65.138,0.678677
65.139,0.678783
65.140,0.678889
65.141,0.678995
65.142,0.679100
65.143,0.679207
65.144,0.679313
65.145,0.679419
65.146,0.679525
65.147,0.679631
65.148,0.679737
65.149,0.679844
65.150,0.679950
65.151,0.680056
65.152,0.680163
65.153,0.680269
65.154,0.680376
65.155,0.680482
65.156,0.680589
65.157,0.680695
65.158,0.680802
65.159,0.680909
65.160,0.681015
65.161,0.681122
65.162,0.681229
65.163,0.681336
65.164,0.681443
65.165,0.681550
65.166,0.681657
65.167,0.681764
65.168,0.681871
65.169,0.681978
65.170,0.682085
65.171,0.682192
65.172,0.682300
65.173,0.682407
65.174,0.682514
65.175,0.682622
65.176,0.682729
65.177,0.682837
65.178,0.682944
65.179,0.683052
65.180,0.683159
65.181,0.683267
65.182,0.683375
65.183,0.683482
65.184,0.683590
65.185,0.683698
65.186,0.683806
65.187,0.683914
65.188,0.684022
65.189,0.684130
65.190,0.684238
65.191,0.684346
65.192,0.684454
65.193,0.684562
65.194,0.684671
65.195,0.684779
65.196,0.684887
65.197,0.684995
65.198,0.685104
65.199,0.685212
65.200,0.685321
65.201,0.685429
65.202,0.685538
65.203,0.685647
65.204,0.685755
65.205,0.685864
65.206,0.685973
65.207,0.686082
65.208,0.686191
65.209,0.686299
65.210,0.686408
65.211,0.686517
65.212,0.686626
65.213,0.686736
65.214,0.686845
65.215,0.686954
65.216,0.687063
65.217,0.687172
65.218,0.687282
65.219,0.687391
65.220,0.687501
65.221,0.687610
65.222,0.687720
65.223,0.687829
65.224,0.687939
65.225,0.688049
65.226,0.688158
65.227,0.688268
65.228,0.688378
65.229,0.688488
65.230,0.688598
65.231,0.688708
65.232,0.688818
65.233,0.688928
65.234,0.689038
65.235,0.689148
65.236,0.689258
65.237,0.689368
65.238,0.689479
65.239,0.689589
65.240,0.689699
65.241,0.689810
65.242,0.689920
65.243,0.690031
65.244,0.690141
65.245,0.690252
65.246,0.690363
65.247,0.690473
65.248,0.690584
65.249,0.690695
65.250,0.690806
65.251,0.690917
65.252,0.691028
65.253,0.691139
65.254,0.691250
65.255,0.691361
65.256,0.691472
65.257,0.691584
65.258,0.691695
65.259,0.691806
65.260,0.691918
65.261,0.692029
65.262,0.692140
65.263,0.692252
65.264,0.692364
65.265,0.692475
65.266,0.692587
65.267,0.692699
65.268,0.692810
65.269,0.692922
65.270,0.693034
65.271,0.693146
65.272,0.693258
65.273,0.693370
65.274,0.693482
65.275,0.693595
65.276,0.693707
65.277,0.693819
65.278,0.693931
65.279,0.694044
65.280,0.694156
65.281,0.694269
65.282,0.694381
65.283,0.694494
65.284,0.694606
65.285,0.694719
65.286,0.694832
65.287,0.694944
65.288,0.695057
65.289,0.695170
65.290,0.695283
65.291,0.695396
65.292,0.695509
65.293,0.695622
65.294,0.695735
65.295,0.695849
65.296,0.695962
65.297,0.696075
65.298,0.696189
65.299,0.696302
65.300,0.696416
65.301,0.696529
65.302,0.696643
65.303,0.696756
65.304,0.696870
65.305,0.696984
65.306,0.697098
65.307,0.697212
65.308,0.697325
65.309,0.697439
65.310,0.697553
65.311,0.697668
65.312,0.697782
65.313,0.697896
65.314,0.698010
65.315,0.698125
65.316,0.698239
65.317,0.698353
65.318,0.698468
65.319,0.698582
65.320,0.698697
65.321,0.698812
65.322,0.698926
65.323,0.699041
65.324,0.699156
65.325,0.699271
65.326,0.699386
65.327,0.699501
65.328,0.699616
65.329,0.699731
65.330,0.699846
65.331,0.699961
65.332,0.700076
65.333,0.700192
65.334,0.700307
65.335,0.700423
65.336,0.700538
65.337,0.700654
65.338,0.700769
65.339,0.700885
65.340,0.701001
65.341,0.701117
65.342,0.701232
65.343,0.701348
65.344,0.701464
65.345,0.701580
65.346,0.701697
65.347,0.701813
65.348,0.701929
65.349,0.702045
65.350,0.702162
65.351,0.702278
65.352,0.702394
65.353,0.702511
65.354,0.702627
65.355,0.702744
65.356,0.702861
65.357,0.702978
65.358,0.703094
65.359,0.703211
65.360,0.703328
65.361,0.703445
65.362,0.703562
65.363,0.703679
65.364,0.703797
65.365,0.703914
65.366,0.704031
65.367,0.704148
65.368,0.704266
65.369,0.704383
65.370,0.704501
65.371,0.704619
65.372,0.704736
65.373,0.704854
65.374,0.704972
65.375,0.705090
65.376,0.705208
65.377,0.705326
65.378,0.705444
65.379,0.705562
65.380,0.705680
65.381,0.705798
65.382,0.705916
65.383,0.706035
65.384,0.706153
65.385,0.706272
65.386,0.706390
65.387,0.706509
65.388,0.706628
65.389,0.706746
65.390,0.706865
65.391,0.706984
65.392,0.707103
65.393,0.707222
65.394,0.707341
65.395,0.707460
65.396,0.707579
65.397,0.707699
65.398,0.707818
65.399,0.707937
65.400,0.708057
65.401,0.708176
65.402,0.708296
65.403,0.708416
65.404,0.708535
65.405,0.708655
65.406,0.708775
65.407,0.708895
65.408,0.709015
65.409,0.709135
65.410,0.709255
65.411,0.709375
65.412,0.709496
65.413,0.709616
65.414,0.709736
65.415,0.709857
65.416,0.709977
65.417,0.710098
65.418,0.710219
65.419,0.710339
65.420,0.710460
65.421,0.710581
65.422,0.710702
65.423,0.710823
65.424,0.710944
65.425,0.711065
65.426,0.711186
65.427,0.711308
65.428,0.711429
65.429,0.711550
65.430,0.711672
65.431,0.711794
65.432,0.711915
65.433,0.712037
65.434,0.712159
65.435,0.712280
65.436,0.712402
65.437,0.712524
65.438,0.712646
65.439,0.712769
65.440,0.712891
65.441,0.713013
65.442,0.713135
65.443,0.713258
65.444,0.713380
65.445,0.713503
65.446,0.713625
65.447,0.713748
65.448,0.713871
65.449,0.713994
65.450,0.714117
65.451,0.714240
65.452,0.714363
65.453,0.714486
65.454,0.714609
65.455,0.714732
65.456,0.714856
65.457,0.714979
65.458,0.715103
65.459,0.715226
65.460,0.715350
65.461,0.715474
65.462,0.715597
65.463,0.715721
65.464,0.715845
65.465,0.715969
65.466,0.716093
65.467,0.716217
65.468,0.716342
65.469,0.716466
65.470,0.716590
65.471,0.716715
65.472,0.716839
65.473,0.716964
65.474,0.717089
65.475,0.717213
65.476,0.717338
65.477,0.717463
65.478,0.717588
65.479,0.717713
65.480,0.717838
65.481,0.717964
65.482,0.718089
65.483,0.718214
65.484,0.718340
65.485,0.718465
65.486,0.718591
65.487,0.718717
65.488,0.718842
65.489,0.718968
65.490,0.719094
65.491,0.719220
65.492,0.719346
65.493,0.719473
65.494,0.719599
65.495,0.719725
65.496,0.719852
65.497,0.719978
65.498,0.720105
65.499,0.720231
65.500,0.720358
65.501,0.720485
65.502,0.720612
65.503,0.720739
65.504,0.720866
65.505,0.720993
65.506,0.721120
65.507,0.721247
65.508,0.721375
65.509,0.721502
65.510,0.721630
65.511,0.721757
65.512,0.721885
65.513,0.722013
65.514,0.722141
65.515,0.722269
65.516,0.722397
65.517,0.722525
65.518,0.722653
65.519,0.722781
65.520,0.722910
65.521,0.723038
65.522,0.723167
65.523,0.723295
65.524,0.723424
65.525,0.723553
65.526,0.723681
65.527,0.723810
65.528,0.723939
65.529,0.724069
65.530,0.724198
65.531,0.724327
65.532,0.724456
65.533,0.724586
65.534,0.724716
65.535,0.724845
65.536,0.724975
65.537,0.725105
65.538,0.725235
65.539,0.725365
65.540,0.725495
65.541,0.725625
65.542,0.725755
65.543,0.725885
65.544,0.726016
65.545,0.726146
65.546,0.726277
65.547,0.726408
65.548,0.726538
65.549,0.726669
65.550,0.726800
65.551,0.726931
65.552,0.727062
65.553,0.727194
65.554,0.727325
65.555,0.727456
65.556,0.727588
65.557,0.727719
65.558,0.727851
65.559,0.727983
65.560,0.728115
65.561,0.728247
65.562,0.728379
65.563,0.728511
65.564,0.728643
65.565,0.728775
65.566,0.728908
65.567,0.729040
65.568,0.729173
65.569,0.729306
65.570,0.729438
65.571,0.729571
65.572,0.729704
65.573,0.729837
65.574,0.729970
65.575,0.730104
65.576,0.730237
65.577,0.730370
65.578,0.730504
65.579,0.730638
65.580,0.730771
65.581,0.730905
65.582,0.731039
65.583,0.731173
65.584,0.731307
65.585,0.731441
65.586,0.731576
65.587,0.731710
65.588,0.731845
65.589,0.731979
65.590,0.732114
65.591,0.732249
65.592,0.732384
65.593,0.732519
65.594,0.732654
65.595,0.732789
65.596,0.732924
65.597,0.733059
65.598,0.733195
65.599,0.733331
65.600,0.733466
65.601,0.733602
65.602,0.733738
65.603,0.733874
65.604,0.734010
65.605,0.734146
65.606,0.734282
65.607,0.734419
65.608,0.734555
65.609,0.734692
65.610,0.734828
65.611,0.734965
65.612,0.735102
65.613,0.735239
65.614,0.735376
65.615,0.735513
65.616,0.735651
65.617,0.735788
65.618,0.735926
65.619,0.736063
65.620,0.736201
65.621,0.736339
65.622,0.736477
65.623,0.736615
65.624,0.736753
65.625,0.736891
65.626,0.737029
65.627,0.737168
65.628,0.737307
65.629,0.737445
65.630,0.737584
65.631,0.737723
65.632,0.737862
65.633,0.738001
65.634,0.738140
65.635,0.738279
65.636,0.738419
65.637,0.738558
65.638,0.738698
65.639,0.738838
65.640,0.738978
65.641,0.739118
65.642,0.739258
65.643,0.739398
65.644,0.739538
65.645,0.739679
65.646,0.739819
65.647,0.739960
65.648,0.740100
65.649,0.740241
65.650,0.740382
65.651,0.740523
65.652,0.740664
65.653,0.740806
65.654,0.740947
65.655,0.741089
65.656,0.741230
65.657,0.741372
65.658,0.741514
65.659,0.741656
65.660,0.741798
65.661,0.741940
65.662,0.742083
65.663,0.742225
65.664,0.742368
65.665,0.742510
65.666,0.742653
65.667,0.742796
65.668,0.742939
65.669,0.743082
65.670,0.743225
65.671,0.743369
65.672,0.743512
65.673,0.743656
65.674,0.743800
65.675,0.743943
65.676,0.744087
65.677,0.744232
65.678,0.744376
65.679,0.744520
65.680,0.744665
65.681,0.744809
65.682,0.744954
65.683,0.745099
65.684,0.745244
65.685,0.745389
65.686,0.745534
65.687,0.745679
65.688,0.745824
65.689,0.745970
65.690,0.746116
65.691,0.746261
65.692,0.746407
65.693,0.746553
65.694,0.746700
65.695,0.746846
65.696,0.746992
65.697,0.747139
65.698,0.747286
65.699,0.747432
65.700,0.747579
65.701,0.747726
65.702,0.747873
65.703,0.748021
65.704,0.748168
65.705,0.748316
65.706,0.748463
65.707,0.748611
65.708,0.748759
65.709,0.748907
65.710,0.749056
65.711,0.749204
65.712,0.749352
65.713,0.749501
65.714,0.749650
65.715,0.749799
65.716,0.749947
65.717,0.750097
65.718,0.750246
65.719,0.750395
65.720,0.750545
65.721,0.750694
65.722,0.750844
65.723,0.750994
65.724,0.751144
65.725,0.751294
65.726,0.751445
65.727,0.751595
65.728,0.751746
65.729,0.751897
65.730,0.752047
65.731,0.752198
65.732,0.752350
65.733,0.752501
65.734,0.752652
65.735,0.752804
65.736,0.752956
65.737,0.753107
65.738,0.753259
65.739,0.753411
65.740,0.753564
65.741,0.753716
65.742,0.753869
65.743,0.754021
65.744,0.754174
65.745,0.754327
65.746,0.754480
65.747,0.754634
65.748,0.754787
65.749,0.754940
65.750,0.755094
65.751,0.755248
65.752,0.755402
65.753,0.755556
65.754,0.755710
65.755,0.755865
65.756,0.756019
65.757,0.756174
65.758,0.756329
65.759,0.756484
65.760,0.756639
65.761,0.756794
65.762,0.756950
65.763,0.757105
65.764,0.757261
65.765,0.757417
65.766,0.757573
65.767,0.757729
65.768,0.757886
65.769,0.758042
65.770,0.758199
65.771,0.758356
65.772,0.758512
65.773,0.758670
65.774,0.758827
65.775,0.758984
65.776,0.759142
65.777,0.759300
65.778,0.759457
65.779,0.759615
65.780,0.759774
65.781,0.759932
65.782,0.760091
65.783,0.760249
65.784,0.760408
65.785,0.760567
65.786,0.760726
65.787,0.760885
65.788,0.761045
65.789,0.761205
65.790,0.761364
65.791,0.761524
65.792,0.761684
65.793,0.761845
65.794,0.762005
65.795,0.762166
65.796,0.762326
65.797,0.762487
65.798,0.762648
65.799,0.762810
65.800,0.762971
65.801,0.763133
65.802,0.763294
65.803,0.763456
65.804,0.763619
65.805,0.763781
65.806,0.763943
65.807,0.764106
65.808,0.764269
65.809,0.764431
65.810,0.764595
65.811,0.764758
65.812,0.764921
65.813,0.765085
65.814,0.765249
65.815,0.765413
65.816,0.765577
65.817,0.765741
65.818,0.765906
65.819,0.766070
65.820,0.766235
65.821,0.766400
65.822,0.766565
65.823,0.766731
65.824,0.766896
65.825,0.767062
65.826,0.767228
65.827,0.767394
65.828,0.767560
65.829,0.767727
65.830,0.767893
65.831,0.768060
65.832,0.768227
65.833,0.768394
65.834,0.768561
65.835,0.768729
65.836,0.768897
65.837,0.769065
65.838,0.769233
65.839,0.769401
65.840,0.769569
65.841,0.769738
65.842,0.769907
65.843,0.770076
65.844,0.770245
65.845,0.770414
65.846,0.770584
65.847,0.770754
65.848,0.770924
65.849,0.771094
65.850,0.771264
65.851,0.771435
65.852,0.771606
65.853,0.771777
65.854,0.771948
65.855,0.772119
65.856,0.772290
65.857,0.772462
65.858,0.772634
65.859,0.772806
65.860,0.772978
65.861,0.773151
65.862,0.773324
65.863,0.773497
65.864,0.773670
65.865,0.773843
65.866,0.774017
65.867,0.774190
65.868,0.774364
65.869,0.774538
65.870,0.774713
65.871,0.774887
65.872,0.775062
65.873,0.775237
65.874,0.775412
65.875,0.775587
65.876,0.775763
65.877,0.775939
65.878,0.776115
65.879,0.776291
65.880,0.776467
65.881,0.776644
65.882,0.776821
65.883,0.776998
65.884,0.777175
65.885,0.777352
65.886,0.777530
65.887,0.777708
65.888,0.777886
65.889,0.778064
65.890,0.778243
65.891,0.778422
65.892,0.778601
65.893,0.778780
65.894,0.778959
65.895,0.779139
65.896,0.779319
65.897,0.779499
65.898,0.779679
65.899,0.779860
65.900,0.780041
65.901,0.780222
65.902,0.780403
65.903,0.780584
65.904,0.780766
65.905,0.780948
65.906,0.781130
65.907,0.781312
65.908,0.781495
65.909,0.781678
65.910,0.781861
65.911,0.782044
65.912,0.782228
65.913,0.782411
65.914,0.782596
65.915,0.782780
65.916,0.782964
65.917,0.783149
65.918,0.783334
65.919,0.783519
65.920,0.783705
65.921,0.783890
65.922,0.784076
65.923,0.784262
65.924,0.784449
65.925,0.784635
65.926,0.784822
65.927,0.785010
65.928,0.785197
65.929,0.785385
65.930,0.785573
65.931,0.785761
65.932,0.785949
65.933,0.786138
65.934,0.786327
65.935,0.786516
65.936,0.786705
65.937,0.786895
65.938,0.787085
65.939,0.787275
65.940,0.787466
65.941,0.787656
65.942,0.787847
65.943,0.788039
65.944,0.788230
65.945,0.788422
65.946,0.788614
65.947,0.788806
65.948,0.788999
65.949,0.789192
65.950,0.789385
65.951,0.789578
65.952,0.789772
65.953,0.789966
65.954,0.790160
65.955,0.790354
65.956,0.790549
65.957,0.790744
65.958,0.790939
65.959,0.791135
65.960,0.791331
65.961,0.791527
65.962,0.791723
65.963,0.791920
65.964,0.792117
65.965,0.792314
65.966,0.792512
65.967,0.792710
65.968,0.792908
65.969,0.793106
65.970,0.793305
65.971,0.793504
65.972,0.793703
65.973,0.793903
65.974,0.794102
65.975,0.794303
65.976,0.794503
65.977,0.794704
65.978,0.794905
65.979,0.795106
65.980,0.795308
65.981,0.795510
65.982,0.795712
65.983,0.795915
65.984,0.796118
65.985,0.796321
65.986,0.796524
65.987,0.796728
65.988,0.796932
65.989,0.797137
65.990,0.797341
65.991,0.797546
65.992,0.797752
65.993,0.797957
65.994,0.798163
65.995,0.798370
65.996,0.798576
65.997,0.798783
65.998,0.798991
65.999,0.799198
66.000,0.799406
66.001,0.799615
66.002,0.799823
66.003,0.800032
66.004,0.800241
66.005,0.800451
66.006,0.800661
66.007,0.800871
66.008,0.801082
66.009,0.801293
66.010,0.801504
66.011,0.801716
66.012,0.801928
66.013,0.802140
66.014,0.802352
66.015,0.802565
66.016,0.802779
66.017,0.802993
66.018,0.803207
66.019,0.803421
66.020,0.803636
66.021,0.803851
66.022,0.804066
66.023,0.804282
66.024,0.804498
66.025,0.804715
66.026,0.804932
66.027,0.805149
66.028,0.805367
66.029,0.805585
66.030,0.805803
66.031,0.806022
66.032,0.806241
66.033,0.806461
66.034,0.806681
66.035,0.806901
66.036,0.807122
66.037,0.807343
66.038,0.807564
66.039,0.807786
66.040,0.808008
66.041,0.808231
66.042,0.808454
66.043,0.808677
66.044,0.808901
66.045,0.809125
66.046,0.809350
66.047,0.809574
66.048,0.809800
66.049,0.810026
66.050,0.810252
66.051,0.810478
66.052,0.810705
66.053,0.810933
66.054,0.811161
66.055,0.811389
66.056,0.811618
66.057,0.811847
66.058,0.812076
66.059,0.812306
66.060,0.812536
66.061,0.812767
66.062,0.812998
66.063,0.813230
66.064,0.813462
66.065,0.813695
66.066,0.813927
66.067,0.814161
66.068,0.814395
66.069,0.814629
66.070,0.814864
66.071,0.815099
66.072,0.815334
66.073,0.815570
66.074,0.815807
66.075,0.816044
66.076,0.816281
66.077,0.816519
66.078,0.816758
66.079,0.816997
66.080,0.817236
66.081,0.817476
66.082,0.817716
66.083,0.817957
66.084,0.818198
66.085,0.818439
66.086,0.818682
66.087,0.818924
66.088,0.819167
66.089,0.819411
66.090,0.819655
66.091,0.819900
66.092,0.820145
66.093,0.820391
66.094,0.820637
66.095,0.820883
66.096,0.821131
66.097,0.821378
66.098,0.821626
66.099,0.821875
66.100,0.822124
66.101,0.822374
66.102,0.822624
66.103,0.822875
66.104,0.823127
66.105,0.823378
66.106,0.823631
66.107,0.823884
66.108,0.824137
66.109,0.824391
66.110,0.824646
66.111,0.824901
66.112,0.825157
66.113,0.825413
66.114,0.825670
66.115,0.825927
66.116,0.826185
66.117,0.826444
66.118,0.826703
66.119,0.826963
66.120,0.827223
66.121,0.827484
66.122,0.827745
66.123,0.828007
66.124,0.828270
66.125,0.828533
66.126,0.828797
66.127,0.829061
66.128,0.829326
66.129,0.829592
66.130,0.829858
66.131,0.830125
66.132,0.830393
66.133,0.830661
66.134,0.830930
66.135,0.831199
66.136,0.831469
66.137,0.831740
66.138,0.832011
66.139,0.832283
66.140,0.832556
66.141,0.832829
66.142,0.833103
66.143,0.833378
66.144,0.833653
66.145,0.833929
66.146,0.834206
66.147,0.834483
66.148,0.834762
66.149,0.835040
66.150,0.835320
66.151,0.835600
66.152,0.835881
66.153,0.836162
66.154,0.836445
66.155,0.836728
66.156,0.837012
66.157,0.837296
66.158,0.837581
66.159,0.837867
66.160,0.838154
66.161,0.838441
66.162,0.838730
66.163,0.839019
66.164,0.839308
66.165,0.839599
66.166,0.839890
66.167,0.840182
66.168,0.840475
66.169,0.840769
66.170,0.841063
66.171,0.841359
66.172,0.841655
66.173,0.841952
66.174,0.842249
66.175,0.842548
66.176,0.842847
66.177,0.843148
66.178,0.843449
66.179,0.843751
66.180,0.844053
66.181,0.844357
66.182,0.844661
66.183,0.844967
66.184,0.845273
66.185,0.845580
66.186,0.845888
66.187,0.846197
66.188,0.846507
66.189,0.846818
66.190,0.847130
66.191,0.847443
66.192,0.847756
66.193,0.848071
66.194,0.848386
66.195,0.848703
66.196,0.849020
66.197,0.849339
66.198,0.849658
66.199,0.849978
66.200,0.850300
66.201,0.850622
66.202,0.850946
66.203,0.851270
66.204,0.851596
66.205,0.851922
66.206,0.852250
66.207,0.852578
66.208,0.852908
66.209,0.853239
66.210,0.853571
66.211,0.853904
66.212,0.854238
66.213,0.854573
66.214,0.854909
66.215,0.855247
66.216,0.855586
66.217,0.855925
66.218,0.856266
66.219,0.856608
66.220,0.856952
66.221,0.857296
66.222,0.857642
66.223,0.857989
66.224,0.858337
66.225,0.858686
66.226,0.859037
66.227,0.859389
66.228,0.859742
66.229,0.860097
66.230,0.860453
66.231,0.860810
66.232,0.861168
66.233,0.861528
66.234,0.861889
66.235,0.862251
66.236,0.862615
66.237,0.862981
66.238,0.863347
66.239,0.863715
66.240,0.864085
66.241,0.864456
66.242,0.864828
66.243,0.865202
66.244,0.865578
66.245,0.865955
66.246,0.866333
66.247,0.866713
