Angle,Reflectance
65.000,0.857298
65.001,0.857349
65.002,0.857401
65.003,0.857452
65.004,0.857504
65.005,0.857556
65.006,0.857607
65.007,0.857659
65.008,0.857711
65.009,0.857762
65.010,0.857814
65.011,0.857866
65.012,0.857917
65.013,0.857969
65.014,0.858021
65.015,0.858072
65.016,0.858124
65.017,0.858176
65.018,0.858228
65.019,0.858279
65.020,0.858331
65.021,0.858383
65.022,0.858435
65.023,0.858487
65.024,0.858539
65.025,0.858590
65.026,0.858642
65.027,0.858694
65.028,0.858746
65.029,0.858798
65.030,0.858850
65.031,0.858902
65.032,0.858954
65.033,0.859006
65.034,0.859058
65.035,0.859110
65.036,0.859161
65.037,0.859213
65.038,0.859265
65.039,0.859317
65.040,0.859370
65.041,0.859422
65.042,0.859474
65.043,0.859526
65.044,0.859578
65.045,0.859630
65.046,0.859682
65.047,0.859734
65.048,0.859786
65.049,0.859838
65.050,0.859890
65.051,0.859943
65.052,0.859995
65.053,0.860047
65.054,0.860099
65.055,0.860151
65.056,0.860203
65.057,0.860256
65.058,0.860308
65.059,0.860360
65.060,0.860412
65.061,0.860465
65.062,0.860517
65.063,0.860569
65.064,0.860622
65.065,0.860674
65.066,0.860726
65.067,0.860779
65.068,0.860831
65.069,0.860883
65.070,0.860936
65.071,0.860988
65.072,0.861041
65.073,0.861093
65.074,0.861145
65.075,0.861198
65.076,0.861250
65.077,0.861303
65.078,0.861355
65.079,0.861408
65.080,0.861460
65.081,0.861513
65.082,0.861565
65.083,0.861618
65.084,0.861670
65.085,0.861723
65.086,0.861776
65.087,0.861828
65.088,0.861881
65.089,0.861933
65.090,0.861986
65.091,0.862039
65.092,0.862091
65.093,0.862144
65.094,0.862197
65.095,0.862249
65.096,0.862302
65.097,0.862355
65.098,0.862408
65.099,0.862460
65.100,0.862513
65.101,0.862566
65.102,0.862619
65.103,0.862672
65.104,0.862724
65.105,0.862777
65.106,0.862830
65.107,0.862883
65.108,0.862936
65.109,0.862989
65.110,0.863042
65.111,0.863094
65.112,0.863147
65.113,0.863200
65.114,0.863253
65.115,0.863306
65.116,0.863359
65.117,0.863412
65.118,0.863465
65.119,0.863518
65.120,0.863571
65.121,0.863624
65.122,0.863677
65.123,0.863730
65.124,0.863784
65.125,0.863837
65.126,0.863890
65.127,0.863943
65.128,0.863996
65.129,0.864049
65.130,0.864102
65.131,0.864156
65.132,0.864209
65.133,0.864262
65.134,0.864315
65.135,0.864368
65.136,0.864422
65.137,0.864475
65.138,0.864528
65.139,0.864581
65.140,0.864635
65.141,0.864688
65.142,0.864741
65.143,0.864795
65.144,0.864848
65.145,0.864902
65.146,0.864955
65.147,0.865008
65.148,0.865062
65.149,0.865115
65.150,0.865169
65.151,0.865222
65.152,0.865276
65.153,0.865329
65.154,0.865383
65.155,0.865436
65.156,0.865490
65.157,0.865543
65.158,0.865597
65.159,0.865650
65.160,0.865704
65.161,0.865757
65.162,0.865811
65.163,0.865865
65.164,0.865918
65.165,0.865972
65.166,0.866026
65.167,0.866079
65.168,0.866133
65.169,0.866187
65.170,0.866241
65.171,0.866294
65.172,0.866348
65.173,0.866402
65.174,0.866456
65.175,0.866509
65.176,0.866563
65.177,0.866617
65.178,0.866671
65.179,0.866725
65.180,0.866779
65.181,0.866833
65.182,0.866887
65.183,0.866941
65.184,0.866994
65.185,0.867048
65.186,0.867102
65.187,0.867156
65.188,0.867210
65.189,0.867264
65.190,0.867318
65.191,0.867372
65.192,0.867427
65.193,0.867481
65.194,0.867535
65.195,0.867589
65.196,0.867643
65.197,0.867697
65.198,0.867751
65.199,0.867805
65.200,0.867860
65.201,0.867914
65.202,0.867968
65.203,0.868022
65.204,0.868077
65.205,0.868131
65.206,0.868185
65.207,0.868239
65.208,0.868294
65.209,0.868348
65.210,0.868402
65.211,0.868457
65.212,0.868511
65.213,0.868566
65.214,0.868620
65.215,0.868674
65.216,0.868729
65.217,0.868783
65.218,0.868838
65.219,0.868892
65.220,0.868947
65.221,0.869001
65.222,0.869056
65.223,0.869110
65.224,0.869165
65.225,0.869219
65.226,0.869274
65.227,0.869329
65.228,0.869383
65.229,0.869438
65.230,0.869493
65.231,0.869547
65.232,0.869602
65.233,0.869657
65.234,0.869711
65.235,0.869766
65.236,0.869821
65.237,0.869876
65.238,0.869931
65.239,0.869985
65.240,0.870040
65.241,0.870095
65.242,0.870150
65.243,0.870205
65.244,0.870260
65.245,0.870315
65.246,0.870370
65.247,0.870425
65.248,0.870479
65.249,0.870534
65.250,0.870589
65.251,0.870644
65.252,0.870700
65.253,0.870755
65.254,0.870810
65.255,0.870865
65.256,0.870920
65.257,0.870975
65.258,0.871030
65.259,0.871085
65.260,0.871140
65.261,0.871196
65.262,0.871251
65.263,0.871306
65.264,0.871361
65.265,0.871417
65.266,0.871472
65.267,0.871527
65.268,0.871582
65.269,0.871638
65.270,0.871693
65.271,0.871748
65.272,0.871804
65.273,0.871859
65.274,0.871915
65.275,0.871970
65.276,0.872026
65.277,0.872081
65.278,0.872136
65.279,0.872192
65.280,0.872247
65.281,0.872303
65.282,0.872359
65.283,0.872414
65.284,0.872470
65.285,0.872525
65.286,0.872581
65.287,0.872637
65.288,0.872692
65.289,0.872748
65.290,0.872804
65.291,0.872859
65.292,0.872915
65.293,0.872971
65.294,0.873027
65.295,0.873082
65.296,0.873138
65.297,0.873194
65.298,0.873250
65.299,0.873306
65.300,0.873362
65.301,0.873418
65.302,0.873474
65.303,0.873529
65.304,0.873585
65.305,0.873641
65.306,0.873697
65.307,0.873753
65.308,0.873809
65.309,0.873866
65.310,0.873922
65.311,0.873978
65.312,0.874034
65.313,0.874090
65.314,0.874146
65.315,0.874202
65.316,0.874258
65.317,0.874315
65.318,0.874371
65.319,0.874427
65.320,0.874483
65.321,0.874540
65.322,0.874596
65.323,0.874652
65.324,0.874709
65.325,0.874765
65.326,0.874821
65.327,0.874878
65.328,0.874934
65.329,0.874991
65.330,0.875047
65.331,0.875104
65.332,0.875160
65.333,0.875217
65.334,0.875273
65.335,0.875330
65.336,0.875386
65.337,0.875443
65.338,0.875499
65.339,0.875556
65.340,0.875613
65.341,0.875669
65.342,0.875726
65.343,0.875783
65.344,0.875840
65.345,0.875896
65.346,0.875953
65.347,0.876010
65.348,0.876067
65.349,0.876124
65.350,0.876180
65.351,0.876237
65.352,0.876294
65.353,0.876351
65.354,0.876408
65.355,0.876465
65.356,0.876522
65.357,0.876579
65.358,0.876636
65.359,0.876693
65.360,0.876750
65.361,0.876807
65.362,0.876864
65.363,0.876921
65.364,0.876979
65.365,0.877036
65.366,0.877093
65.367,0.877150
65.368,0.877207
65.369,0.877265
65.370,0.877322
65.371,0.877379
65.372,0.877437
65.373,0.877494
65.374,0.877551
65.375,0.877609
65.376,0.877666
65.377,0.877723
65.378,0.877781
65.379,0.877838
65.380,0.877896
65.381,0.877953
65.382,0.878011
65.383,0.878068
65.384,0.878126
65.385,0.878184
65.386,0.878241
65.387,0.878299
65.388,0.878356
65.389,0.878414
65.390,0.878472
65.391,0.878530
65.392,0.878587
65.393,0.878645
65.394,0.878703
65.395,0.878761
65.396,0.878819
65.397,0.878876
65.398,0.878934
65.399,0.878992
65.400,0.879050
65.401,0.879108
65.402,0.879166
65.403,0.879224
65.404,0.879282
65.405,0.879340
65.406,0.879398
65.407,0.879456
65.408,0.879514
65.409,0.879572
65.410,0.879631
65.411,0.879689
65.412,0.879747
65.413,0.879805
65.414,0.879863
65.415,0.879922
65.416,0.879980
65.417,0.880038
65.418,0.880097
65.419,0.880155
65.420,0.880213
65.421,0.880272
65.422,0.880330
65.423,0.880389
65.424,0.880447
65.425,0.880506
65.426,0.880564
65.427,0.880623
65.428,0.880681
65.429,0.880740
65.430,0.880798
65.431,0.880857
65.432,0.880916
65.433,0.880974
65.434,0.881033
65.435,0.881092
65.436,0.881151
65.437,0.881209
65.438,0.881268
65.439,0.881327
65.440,0.881386
65.441,0.881445
65.442,0.881504
65.443,0.881563
65.444,0.881622
65.445,0.881680
65.446,0.881739
65.447,0.881799
65.448,0.881858
65.449,0.881917
65.450,0.881976
65.451,0.882035
65.452,0.882094
65.453,0.882153
65.454,0.882212
65.455,0.882272
65.456,0.882331
65.457,0.882390
65.458,0.882449
65.459,0.882509
65.460,0.882568
65.461,0.882627
65.462,0.882687
65.463,0.882746
65.464,0.882806
65.465,0.882865
65.466,0.882925
65.467,0.882984
65.468,0.883044
65.469,0.883103
65.470,0.883163
65.471,0.883223
65.472,0.883282
65.473,0.883342
65.474,0.883402
65.475,0.883461
65.476,0.883521
65.477,0.883581
65.478,0.883641
65.479,0.883701
65.480,0.883760
65.481,0.883820
65.482,0.883880
65.483,0.883940
65.484,0.884000
65.485,0.884060
65.486,0.884120
65.487,0.884180
65.488,0.884240
65.489,0.884300
65.490,0.884360
65.491,0.884421
65.492,0.884481
65.493,0.884541
65.494,0.884601
65.495,0.884661
65.496,0.884722
65.497,0.884782
65.498,0.884842
65.499,0.884903
65.500,0.884963
65.501,0.885024
65.502,0.885084
65.503,0.885145
65.504,0.885205
65.505,0.885266
65.506,0.885326
65.507,0.885387
65.508,0.885447
65.509,0.885508
65.510,0.885569
65.511,0.885629
65.512,0.885690
65.513,0.885751
65.514,0.885812
65.515,0.885872
65.516,0.885933
65.517,0.885994
65.518,0.886055
65.519,0.886116
65.520,0.886177
65.521,0.886238
65.522,0.886299
65.523,0.886360
65.524,0.886421
65.525,0.886482
65.526,0.886543
65.527,0.886604
65.528,0.886666
65.529,0.886727
65.530,0.886788
65.531,0.886849
65.532,0.886911
65.533,0.886972
65.534,0.887033
65.535,0.887095
65.536,0.887156
65.537,0.887218
65.538,0.887279
65.539,0.887341
65.540,0.887402
65.541,0.887464
65.542,0.887525
65.543,0.887587
65.544,0.887648
65.545,0.887710
65.546,0.887772
65.547,0.887834
65.548,0.887895
65.549,0.887957
65.550,0.888019
65.551,0.888081
65.552,0.888143
65.553,0.888205
65.554,0.888267
65.555,0.888329
65.556,0.888391
65.557,0.888453
65.558,0.888515
65.559,0.888577
65.560,0.888639
65.561,0.888701
65.562,0.888763
65.563,0.888826
65.564,0.888888
65.565,0.888950
65.566,0.889013
65.567,0.889075
65.568,0.889137
65.569,0.889200
65.570,0.889262
65.571,0.889325
65.572,0.889387
65.573,0.889450
65.574,0.889512
65.575,0.889575
65.576,0.889638
65.577,0.889700
65.578,0.889763
65.579,0.889826
65.580,0.889888
65.581,0.889951
65.582,0.890014
65.583,0.890077
65.584,0.890140
65.585,0.890203
65.586,0.890266
65.587,0.890329
65.588,0.890392
65.589,0.890455
65.590,0.890518
65.591,0.890581
65.592,0.890644
65.593,0.890708
65.594,0.890771
65.595,0.890834
65.596,0.890897
65.597,0.890961
65.598,0.891024
65.599,0.891087
65.600,0.891151
65.601,0.891214
65.602,0.891278
65.603,0.891341
65.604,0.891405
65.605,0.891469
65.606,0.891532
65.607,0.891596
65.608,0.891660
65.609,0.891723
65.610,0.891787
65.611,0.891851
65.612,0.891915
65.613,0.891979
65.614,0.892043
65.615,0.892106
65.616,0.892170
65.617,0.892234
65.618,0.892299
65.619,0.892363
65.620,0.892427
65.621,0.892491
65.622,0.892555
65.623,0.892619
65.624,0.892684
65.625,0.892748
65.626,0.892812
65.627,0.892877
65.628,0.892941
65.629,0.893006
65.630,0.893070
65.631,0.893135
65.632,0.893199
65.633,0.893264
65.634,0.893328
65.635,0.893393
65.636,0.893458
65.637,0.893522
65.638,0.893587
65.639,0.893652
65.640,0.893717
65.641,0.893782
65.642,0.893847
65.643,0.893912
65.644,0.893977
65.645,0.894042
65.646,0.894107
65.647,0.894172
65.648,0.894237
65.649,0.894302
65.650,0.894367
65.651,0.894433
65.652,0.894498
65.653,0.894563
65.654,0.894629
65.655,0.894694
65.656,0.894760
65.657,0.894825
65.658,0.894891
65.659,0.894956
65.660,0.895022
65.661,0.895087
65.662,0.895153
65.663,0.895219
65.664,0.895285
65.665,0.895350
65.666,0.895416
65.667,0.895482
65.668,0.895548
65.669,0.895614
65.670,0.895680
65.671,0.895746
65.672,0.895812
65.673,0.895878
65.674,0.895944
65.675,0.896011
65.676,0.896077
65.677,0.896143
65.678,0.896210
65.679,0.896276
65.680,0.896342
65.681,0.896409
65.682,0.896475
65.683,0.896542
65.684,0.896608
65.685,0.896675
65.686,0.896742
65.687,0.896808
65.688,0.896875
65.689,0.896942
65.690,0.897009
65.691,0.897076
65.692,0.897142
65.693,0.897209
65.694,0.897276
65.695,0.897343
65.696,0.897410
65.697,0.897478
65.698,0.897545
65.699,0.897612
65.700,0.897679
65.701,0.897746
65.702,0.897814
65.703,0.897881
65.704,0.897949
65.705,0.898016
65.706,0.898084
65.707,0.898151
65.708,0.898219
65.709,0.898286
65.710,0.898354
65.711,0.898422
65.712,0.898489
65.713,0.898557
65.714,0.898625
65.715,0.898693
65.716,0.898761
65.717,0.898829
65.718,0.898897
65.719,0.898965
65.720,0.899033
65.721,0.899101
65.722,0.899170
65.723,0.899238
65.724,0.899306
65.725,0.899374
65.726,0.899443
65.727,0.899511
65.728,0.899580
65.729,0.899648
65.730,0.899717
65.731,0.899785
65.732,0.899854
65.733,0.899923
65.734,0.899992
65.735,0.900060
65.736,0.900129
65.737,0.900198
65.738,0.900267
65.739,0.900336
65.740,0.900405
65.741,0.900474
65.742,0.900543
65.743,0.900613
65.744,0.900682
65.745,0.900751
65.746,0.900820
65.747,0.900890
65.748,0.900959
65.749,0.901029
65.750,0.901098
65.751,0.901168
65.752,0.901237
65.753,0.901307
65.754,0.901377
65.755,0.901447
65.756,0.901516
65.757,0.901586
65.758,0.901656
65.759,0.901726
65.760,0.901796
65.761,0.901866
65.762,0.901936
65.763,0.902007
65.764,0.902077
65.765,0.902147
65.766,0.902217
65.767,0.902288
65.768,0.902358
65.769,0.902429
65.770,0.902499
65.771,0.902570
65.772,0.902640
65.773,0.902711
65.774,0.902782
65.775,0.902853
65.776,0.902923
65.777,0.902994
65.778,0.903065
65.779,0.903136
65.780,0.903207
65.781,0.903278
65.782,0.903349
65.783,0.903421
65.784,0.903492
65.785,0.903563
65.786,0.903635
65.787,0.903706
65.788,0.903777
65.789,0.903849
65.790,0.903921
65.791,0.903992
65.792,0.904064
65.793,0.904136
65.794,0.904207
65.795,0.904279
65.796,0.904351
65.797,0.904423
65.798,0.904495
65.799,0.904567
65.800,0.904639
65.801,0.904712
65.802,0.904784
65.803,0.904856
65.804,0.904928
65.805,0.905001
65.806,0.905073
65.807,0.905146
65.808,0.905218
65.809,0.905291
65.810,0.905364
65.811,0.905437
65.812,0.905509
65.813,0.905582
65.814,0.905655
65.815,0.905728
65.816,0.905801
65.817,0.905874
65.818,0.905947
65.819,0.906021
65.820,0.906094
65.821,0.906167
65.822,0.906241
65.823,0.906314
65.824,0.906388
65.825,0.906461
65.826,0.906535
65.827,0.906608
65.828,0.906682
65.829,0.906756
65.830,0.906830
65.831,0.906904
65.832,0.906978
65.833,0.907052
65.834,0.907126
65.835,0.907200
65.836,0.907274
65.837,0.907349
65.838,0.907423
65.839,0.907498
65.840,0.907572
65.841,0.907647
65.842,0.907721
65.843,0.907796
65.844,0.907871
65.845,0.907945
65.846,0.908020
65.847,0.908095
65.848,0.908170
65.849,0.908245
65.850,0.908320
65.851,0.908396
65.852,0.908471
65.853,0.908546
65.854,0.908622
65.855,0.908697
65.856,0.908773
65.857,0.908848
65.858,0.908924
65.859,0.909000
65.860,0.909075
65.861,0.909151
65.862,0.909227
65.863,0.909303
65.864,0.909379
65.865,0.909455
65.866,0.909531
65.867,0.909608
65.868,0.909684
65.869,0.909760
65.870,0.909837
65.871,0.909913
65.872,0.909990
65.873,0.910067
65.874,0.910143
65.875,0.910220
65.876,0.910297
65.877,0.910374
65.878,0.910451
65.879,0.910528
65.880,0.910605
65.881,0.910683
65.882,0.910760
65.883,0.910837
65.884,0.910915
65.885,0.910992
65.886,0.911070
65.887,0.911147
65.888,0.911225
65.889,0.911303
65.890,0.911381
65.891,0.911459
65.892,0.911537
65.893,0.911615
65.894,0.911693
65.895,0.911771
65.896,0.911850
65.897,0.911928
65.898,0.912007
65.899,0.912085
65.900,0.912164
65.901,0.912242
65.902,0.912321
65.903,0.912400
65.904,0.912479
65.905,0.912558
65.906,0.912637
65.907,0.912716
65.908,0.912796
65.909,0.912875
65.910,0.912954
65.911,0.913034
65.912,0.913113
65.913,0.913193
65.914,0.913273
65.915,0.913352
65.916,0.913432
65.917,0.913512
65.918,0.913592
65.919,0.913672
65.920,0.913753
65.921,0.913833
65.922,0.913913
65.923,0.913994
65.924,0.914074
65.925,0.914155
65.926,0.914235
65.927,0.914316
65.928,0.914397
65.929,0.914478
65.930,0.914559
65.931,0.914640
65.932,0.914721
65.933,0.914802
65.934,0.914884
65.935,0.914965
65.936,0.915047
65.937,0.915128
65.938,0.915210
65.939,0.915292
65.940,0.915374
65.941,0.915456
65.942,0.915538
65.943,0.915620
65.944,0.915702
65.945,0.915784
65.946,0.915867
65.947,0.915949
65.948,0.916032
65.949,0.916114
65.950,0.916197
65.951,0.916280
65.952,0.916363
65.953,0.916446
65.954,0.916529
65.955,0.916612
65.956,0.916696
65.957,0.916779
65.958,0.916863
65.959,0.916946
65.960,0.917030
65.961,0.917114
65.962,0.917197
65.963,0.917281
65.964,0.917365
65.965,0.917450
65.966,0.917534
65.967,0.917618
65.968,0.917703
65.969,0.917787
65.970,0.917872
65.971,0.917956
65.972,0.918041
65.973,0.918126
65.974,0.918211
65.975,0.918296
65.976,0.918381
65.977,0.918467
65.978,0.918552
65.979,0.918638
65.980,0.918723
65.981,0.918809
65.982,0.918895
65.983,0.918981
65.984,0.919067
65.985,0.919153
65.986,0.919239
65.987,0.919325
65.988,0.919412
65.989,0.919498
65.990,0.919585
65.991,0.919672
65.992,0.919759
65.993,0.919846
65.994,0.919933
65.995,0.920020
65.996,0.920107
65.997,0.920194
65.998,0.920282
65.999,0.920370
66.000,0.920457
66.001,0.920545
66.002,0.920633
66.003,0.920721
66.004,0.920809
66.005,0.920897
66.006,0.920986
66.007,0.921074
66.008,0.921163
66.009,0.921252
66.010,0.921340
66.011,0.921429
66.012,0.921518
66.013,0.921608
66.014,0.921697
66.015,0.921786
66.016,0.921876
66.017,0.921965
66.018,0.922055
66.019,0.922145
66.020,0.922235
66.021,0.922325
66.022,0.922415
66.023,0.922506
66.024,0.922596
66.025,0.922687
66.026,0.922777
66.027,0.922868
66.028,0.922959
66.029,0.923050
66.030,0.923142
66.031,0.923233
66.032,0.923324
66.033,0.923416
66.034,0.923508
66.035,0.923599
66.036,0.923691
66.037,0.923783
66.038,0.923876
66.039,0.923968
66.040,0.924060
66.041,0.924153
66.042,0.924246
66.043,0.924339
66.044,0.924432
66.045,0.924525
66.046,0.924618
66.047,0.924711
66.048,0.924805
66.049,0.924899
66.050,0.924992
66.051,0.925086
66.052,0.925180
66.053,0.925275
66.054,0.925369
66.055,0.925463
66.056,0.925558
66.057,0.925653
66.058,0.925748
66.059,0.925843
66.060,0.925938
66.061,0.926033
66.062,0.926129
66.063,0.926224
66.064,0.926320
66.065,0.926416
66.066,0.926512
66.067,0.926608
66.068,0.926705
66.069,0.926801
66.070,0.926898
66.071,0.926994
66.072,0.927091
66.073,0.927188
66.074,0.927286
66.075,0.927383
66.076,0.927481
66.077,0.927578
66.078,0.927676
66.079,0.927774
66.080,0.927872
66.081,0.927971
66.082,0.928069
66.083,0.928168
66.084,0.928267
66.085,0.928366
66.086,0.928465
66.087,0.928564
66.088,0.928663
66.089,0.928763
66.090,0.928863
66.091,0.928963
66.092,0.929063
66.093,0.929163
66.094,0.929264
66.095,0.929364
66.096,0.929465
66.097,0.929566
66.098,0.929667
66.099,0.929768
66.100,0.929870
66.101,0.929972
66.102,0.930073
66.103,0.930175
66.104,0.930278
66.105,0.930380
66.106,0.930482
66.107,0.930585
66.108,0.930688
66.109,0.930791
66.110,0.930894
66.111,0.930998
66.112,0.931101
66.113,0.931205
66.114,0.931309
66.115,0.931413
66.116,0.931518
66.117,0.931622
66.118,0.931727
66.119,0.931832
66.120,0.931937
66.121,0.932043
66.122,0.932148
66.123,0.932254
66.124,0.932360
66.125,0.932466
66.126,0.932572
66.127,0.932679
66.128,0.932786
66.129,0.932893
66.130,0.933000
66.131,0.933107
66.132,0.933215
66.133,0.933323
66.134,0.933431
66.135,0.933539
66.136,0.933647
66.137,0.933756
66.138,0.933865
66.139,0.933974
66.140,0.934083
66.141,0.934192
66.142,0.934302
66.143,0.934412
66.144,0.934522
66.145,0.934633
66.146,0.934743
66.147,0.934854
66.148,0.934965
66.149,0.935077
66.150,0.935188
66.151,0.935300
66.152,0.935412
66.153,0.935524
66.154,0.935637
66.155,0.935749
66.156,0.935862
66.157,0.935976
66.158,0.936089
66.159,0.936203
66.160,0.936317
66.161,0.936431
66.162,0.936546
66.163,0.936660
66.164,0.936775
66.165,0.936890
66.166,0.937006
66.167,0.937122
66.168,0.937238
66.169,0.937354
66.170,0.937471
66.171,0.937587
66.172,0.937704
66.173,0.937822
66.174,0.937939
66.175,0.938057
66.176,0.938176
66.177,0.938294
66.178,0.938413
66.179,0.938532
66.180,0.938651
66.181,0.938771
66.182,0.938891
66.183,0.939011
66.184,0.939131
66.185,0.939252
66.186,0.939373
66.187,0.939495
66.188,0.939616
66.189,0.939738
66.190,0.939861
66.191,0.939983
66.192,0.940106
66.193,0.940229
66.194,0.940353
66.195,0.940477
66.196,0.940601
66.197,0.940725
66.198,0.940850
66.199,0.940976
66.200,0.941101
66.201,0.941227
66.202,0.941353
66.203,0.941480
66.204,0.941607
66.205,0.941734
66.206,0.941861
66.207,0.941989
66.208,0.942118
66.209,0.942246
66.210,0.942375
66.211,0.942505
66.212,0.942634
66.213,0.942765
66.214,0.942895
66.215,0.943026
66.216,0.943157
66.217,0.943289
66.218,0.943421
66.219,0.943553
66.220,0.943686
66.221,0.943819
66.222,0.943953
66.223,0.944087
66.224,0.944221
66.225,0.944356
66.226,0.944492
66.227,0.944627
66.228,0.944763
66.229,0.944900
66.230,0.945037
66.231,0.945174
66.232,0.945312
66.233,0.945451
66.234,0.945589
66.235,0.945729
66.236,0.945868
66.237,0.946008
66.238,0.946149
66.239,0.946290
66.240,0.946432
66.241,0.946574
66.242,0.946716
66.243,0.946859
66.244,0.947003
66.245,0.947147
66.246,0.947291
66.247,0.947437
