Angle,Reflectance
65.000,0.742551
65.001,0.742584
65.002,0.742618
65.003,0.742651
65.004,0.742684
65.005,0.742718
65.006,0.742751
65.007,0.742784
65.008,0.742818
65.009,0.742851
65.010,0.742885
65.011,0.742918
65.012,0.742951
65.013,0.742985
65.014,0.743018
65.015,0.743051
65.016,0.743085
65.017,0.743118
65.018,0.743151
65.019,0.743185
65.020,0.743218
65.021,0.743251
65.022,0.743285
65.023,0.743318
65.024,0.743351
65.025,0.743385
65.026,0.743418
65.027,0.743451
65.028,0.743485
65.029,0.743518
65.030,0.743551
65.031,0.743585
65.032,0.743618
65.033,0.743651
65.034,0.743684
65.035,0.743718
65.036,0.743751
65.037,0.743784
65.038,0.743817
65.039,0.743851
65.040,0.743884
65.041,0.743917
65.042,0.743950
65.043,0.743984
65.044,0.744017
65.045,0.744050
65.046,0.744083
65.047,0.744117
65.048,0.744150
65.049,0.744183
65.050,0.744216
65.051,0.744249
65.052,0.744283
65.053,0.744316
65.054,0.744349
65.055,0.744382
65.056,0.744415
65.057,0.744449
65.058,0.744482
65.059,0.744515
65.060,0.744548
65.061,0.744581
65.062,0.744614
65.063,0.744648
65.064,0.744681
65.065,0.744714
65.066,0.744747
65.067,0.744780
65.068,0.744813
65.069,0.744847
65.070,0.744880
65.071,0.744913
65.072,0.744946
65.073,0.744979
65.074,0.745012
65.075,0.745045
65.076,0.745078
65.077,0.745111
65.078,0.745145
65.079,0.745178
65.080,0.745211
65.081,0.745244
65.082,0.745277
65.083,0.745310
65.084,0.745343
65.085,0.745376
65.086,0.745409
65.087,0.745442
65.088,0.745475
65.089,0.745508
65.090,0.745541
65.091,0.745575
65.092,0.745608
65.093,0.745641
65.094,0.745674
65.095,0.745707
65.096,0.745740
65.097,0.745773
65.098,0.745806
65.099,0.745839
65.100,0.745872
65.101,0.745905
65.102,0.745938
65.103,0.745971
65.104,0.746004
65.105,0.746037
65.106,0.746070
65.107,0.746103
65.108,0.746136
65.109,0.746169
65.110,0.746202
65.111,0.746235
65.112,0.746268
65.113,0.746301
65.114,0.746334
65.115,0.746367
65.116,0.746399
65.117,0.746432
65.118,0.746465
65.119,0.746498
65.120,0.746531
65.121,0.746564
65.122,0.746597
65.123,0.746630
65.124,0.746663
65.125,0.746696
65.126,0.746729
65.127,0.746762
65.128,0.746795
65.129,0.746827
65.130,0.746860
65.131,0.746893
65.132,0.746926
65.133,0.746959
65.134,0.746992
65.135,0.747025
65.136,0.747058
65.137,0.747091
65.138,0.747123
65.139,0.747156
65.140,0.747189
65.141,0.747222
65.142,0.747255
65.143,0.747288
65.144,0.747320
65.145,0.747353
65.146,0.747386
65.147,0.747419
65.148,0.747452
65.149,0.747485
65.150,0.747517
65.151,0.747550
65.152,0.747583
65.153,0.747616
65.154,0.747649
65.155,0.747681
65.156,0.747714
65.157,0.747747
65.158,0.747780
65.159,0.747813
65.160,0.747845
65.161,0.747878
65.162,0.747911
65.163,0.747944
65.164,0.747976
65.165,0.748009
65.166,0.748042
65.167,0.748075
65.168,0.748107
65.169,0.748140
65.170,0.748173
65.171,0.748206
65.172,0.748238
65.173,0.748271
65.174,0.748304
65.175,0.748337
65.176,0.748369
65.177,0.748402
65.178,0.748435
65.179,0.748467
65.180,0.748500
65.181,0.748533
65.182,0.748565
65.183,0.748598
65.184,0.748631
65.185,0.748664
65.186,0.748696
65.187,0.748729
65.188,0.748762
65.189,0.748794
65.190,0.748827
65.191,0.748859
65.192,0.748892
65.193,0.748925
65.194,0.748957
65.195,0.748990
65.196,0.749023
65.197,0.749055
65.198,0.749088
65.199,0.749121
65.200,0.749153
65.201,0.749186
65.202,0.749218
65.203,0.749251
65.204,0.749284
65.205,0.749316
65.206,0.749349
65.207,0.749381
65.208,0.749414
65.209,0.749447
65.210,0.749479
65.211,0.749512
65.212,0.749544
65.213,0.749577
65.214,0.749609
65.215,0.749642
65.216,0.749675
65.217,0.749707
65.218,0.749740
65.219,0.749772
65.220,0.749805
65.221,0.749837
65.222,0.749870
65.223,0.749902
65.224,0.749935
65.225,0.749967
65.226,0.750000
65.227,0.750032
65.228,0.750065
65.229,0.750097
65.230,0.750130
65.231,0.750162
65.232,0.750195
65.233,0.750227
65.234,0.750260
65.235,0.750292
65.236,0.750325
65.237,0.750357
65.238,0.750390
65.239,0.750422
65.240,0.750455
65.241,0.750487
65.242,0.750520
65.243,0.750552
65.244,0.750585
65.245,0.750617
65.246,0.750649
65.247,0.750682
65.248,0.750714
65.249,0.750747
65.250,0.750779
65.251,0.750812
65.252,0.750844
65.253,0.750876
65.254,0.750909
65.255,0.750941
65.256,0.750974
65.257,0.751006
65.258,0.751038
65.259,0.751071
65.260,0.751103
65.261,0.751136
65.262,0.751168
65.263,0.751200
65.264,0.751233
65.265,0.751265
65.266,0.751297
65.267,0.751330
65.268,0.751362
65.269,0.751394
65.270,0.751427
65.271,0.751459
65.272,0.751491
65.273,0.751524
65.274,0.751556
65.275,0.751588
65.276,0.751621
65.277,0.751653
65.278,0.751685
65.279,0.751718
65.280,0.751750
65.281,0.751782
65.282,0.751815
65.283,0.751847
65.284,0.751879
65.285,0.751911
65.286,0.751944
65.287,0.751976
65.288,0.752008
65.289,0.752041
65.290,0.752073
65.291,0.752105
65.292,0.752137
65.293,0.752170
65.294,0.752202
65.295,0.752234
65.296,0.752266
65.297,0.752299
65.298,0.752331
65.299,0.752363
65.300,0.752395
65.301,0.752428
65.302,0.752460
65.303,0.752492
65.304,0.752524
65.305,0.752556
65.306,0.752589
65.307,0.752621
65.308,0.752653
65.309,0.752685
65.310,0.752717
65.311,0.752750
65.312,0.752782
65.313,0.752814
65.314,0.752846
65.315,0.752878
65.316,0.752910
65.317,0.752943
65.318,0.752975
65.319,0.753007
65.320,0.753039
65.321,0.753071
65.322,0.753103
65.323,0.753136
65.324,0.753168
65.325,0.753200
65.326,0.753232
65.327,0.753264
65.328,0.753296
65.329,0.753328
65.330,0.753360
65.331,0.753392
65.332,0.753425
65.333,0.753457
65.334,0.753489
65.335,0.753521
65.336,0.753553
65.337,0.753585
65.338,0.753617
65.339,0.753649
65.340,0.753681
65.341,0.753713
65.342,0.753745
65.343,0.753777
65.344,0.753810
65.345,0.753842
65.346,0.753874
65.347,0.753906
65.348,0.753938
65.349,0.753970
65.350,0.754002
65.351,0.754034
65.352,0.754066
65.353,0.754098
65.354,0.754130
65.355,0.754162
65.356,0.754194
65.357,0.754226
65.358,0.754258
65.359,0.754290
65.360,0.754322
65.361,0.754354
65.362,0.754386
65.363,0.754418
65.364,0.754450
65.365,0.754482
65.366,0.754514
65.367,0.754546
65.368,0.754578
65.369,0.754610
65.370,0.754642
65.371,0.754674
65.372,0.754706
65.373,0.754738
65.374,0.754769
65.375,0.754801
65.376,0.754833
65.377,0.754865
65.378,0.754897
65.379,0.754929
65.380,0.754961
65.381,0.754993
65.382,0.755025
65.383,0.755057
65.384,0.755089
65.385,0.755121
65.386,0.755152
65.387,0.755184
65.388,0.755216
65.389,0.755248
65.390,0.755280
65.391,0.755312
65.392,0.755344
65.393,0.755376
65.394,0.755407
65.395,0.755439
65.396,0.755471
65.397,0.755503
65.398,0.755535
65.399,0.755567
65.400,0.755599
65.401,0.755630
65.402,0.755662
65.403,0.755694
65.404,0.755726
65.405,0.755758
65.406,0.755790
65.407,0.755821
65.408,0.755853
65.409,0.755885
65.410,0.755917
65.411,0.755949
65.412,0.755980
65.413,0.756012
65.414,0.756044
65.415,0.756076
65.416,0.756108
65.417,0.756139
65.418,0.756171
65.419,0.756203
65.420,0.756235
65.421,0.756266
65.422,0.756298
65.423,0.756330
65.424,0.756362
65.425,0.756393
65.426,0.756425
65.427,0.756457
65.428,0.756489
65.429,0.756520
65.430,0.756552
65.431,0.756584
65.432,0.756616
65.433,0.756647
65.434,0.756679
65.435,0.756711
65.436,0.756742
65.437,0.756774
65.438,0.756806
65.439,0.756837
65.440,0.756869
65.441,0.756901
65.442,0.756933
65.443,0.756964
65.444,0.756996
65.445,0.757028
65.446,0.757059
65.447,0.757091
65.448,0.757123
65.449,0.757154
65.450,0.757186
65.451,0.757217
65.452,0.757249
65.453,0.757281
65.454,0.757312
65.455,0.757344
65.456,0.757376
65.457,0.757407
65.458,0.757439
65.459,0.757471
65.460,0.757502
65.461,0.757534
65.462,0.757565
65.463,0.757597
65.464,0.757629
65.465,0.757660
65.466,0.757692
65.467,0.757723
65.468,0.757755
65.469,0.757786
65.470,0.757818
65.471,0.757850
65.472,0.757881
65.473,0.757913
65.474,0.757944
65.475,0.757976
65.476,0.758007
65.477,0.758039
65.478,0.758070
65.479,0.758102
65.480,0.758134
65.481,0.758165
65.482,0.758197
65.483,0.758228
65.484,0.758260
65.485,0.758291
65.486,0.758323
65.487,0.758354
65.488,0.758386
65.489,0.758417
65.490,0.758449
65.491,0.758480
65.492,0.758512
65.493,0.758543
65.494,0.758575
65.495,0.758606
65.496,0.758638
65.497,0.758669
65.498,0.758701
65.499,0.758732
65.500,0.758763
65.501,0.758795
65.502,0.758826
65.503,0.758858
65.504,0.758889
65.505,0.758921
65.506,0.758952
65.507,0.758984
65.508,0.759015
65.509,0.759046
65.510,0.759078
65.511,0.759109
65.512,0.759141
65.513,0.759172
65.514,0.759204
65.515,0.759235
65.516,0.759266
65.517,0.759298
65.518,0.759329
65.519,0.759361
65.520,0.759392
65.521,0.759423
65.522,0.759455
65.523,0.759486
65.524,0.759517
65.525,0.759549
65.526,0.759580
65.527,0.759611
65.528,0.759643
65.529,0.759674
65.530,0.759706
65.531,0.759737
65.532,0.759768
65.533,0.759800
65.534,0.759831
65.535,0.759862
65.536,0.759894
65.537,0.759925
65.538,0.759956
65.539,0.759987
65.540,0.760019
65.541,0.760050
65.542,0.760081
65.543,0.760113
65.544,0.760144
65.545,0.760175
65.546,0.760207
65.547,0.760238
65.548,0.760269
65.549,0.760300
65.550,0.760332
65.551,0.760363
65.552,0.760394
65.553,0.760425
65.554,0.760457
65.555,0.760488
65.556,0.760519
65.557,0.760550
65.558,0.760582
65.559,0.760613
65.560,0.760644
65.561,0.760675
65.562,0.760707
65.563,0.760738
65.564,0.760769
65.565,0.760800
65.566,0.760831
65.567,0.760863
65.568,0.760894
65.569,0.760925
65.570,0.760956
65.571,0.760987
65.572,0.761019
65.573,0.761050
65.574,0.761081
65.575,0.761112
65.576,0.761143
65.577,0.761175
65.578,0.761206
65.579,0.761237
65.580,0.761268
65.581,0.761299
65.582,0.761330
65.583,0.761362
65.584,0.761393
65.585,0.761424
65.586,0.761455
65.587,0.761486
65.588,0.761517
65.589,0.761548
65.590,0.761579
65.591,0.761611
65.592,0.761642
65.593,0.761673
65.594,0.761704
65.595,0.761735
65.596,0.761766
65.597,0.761797
65.598,0.761828
65.599,0.761859
65.600,0.761890
65.601,0.761922
65.602,0.761953
65.603,0.761984
65.604,0.762015
65.605,0.762046
65.606,0.762077
65.607,0.762108
65.608,0.762139
65.609,0.762170
65.610,0.762201
65.611,0.762232
65.612,0.762263
65.613,0.762294
65.614,0.762325
65.615,0.762356
65.616,0.762387
65.617,0.762418
65.618,0.762449
65.619,0.762480
65.620,0.762511
65.621,0.762542
65.622,0.762573
65.623,0.762604
65.624,0.762635
65.625,0.762666
65.626,0.762697
65.627,0.762728
65.628,0.762759
65.629,0.762790
65.630,0.762821
65.631,0.762852
65.632,0.762883
65.633,0.762914
65.634,0.762945
65.635,0.762976
65.636,0.763007
65.637,0.763038
65.638,0.763069
65.639,0.763100
65.640,0.763131
65.641,0.763162
65.642,0.763193
65.643,0.763223
65.644,0.763254
65.645,0.763285
65.646,0.763316
65.647,0.763347
65.648,0.763378
65.649,0.763409
65.650,0.763440
65.651,0.763471
65.652,0.763502
65.653,0.763532
65.654,0.763563
65.655,0.763594
65.656,0.763625
65.657,0.763656
65.658,0.763687
65.659,0.763718
65.660,0.763749
65.661,0.763779
65.662,0.763810
65.663,0.763841
65.664,0.763872
65.665,0.763903
65.666,0.763934
65.667,0.763965
65.668,0.763995
65.669,0.764026
65.670,0.764057
65.671,0.764088
65.672,0.764119
65.673,0.764149
65.674,0.764180
65.675,0.764211
65.676,0.764242
65.677,0.764273
65.678,0.764303
65.679,0.764334
65.680,0.764365
65.681,0.764396
65.682,0.764427
65.683,0.764457
65.684,0.764488
65.685,0.764519
65.686,0.764550
65.687,0.764580
65.688,0.764611
65.689,0.764642
65.690,0.764673
65.691,0.764703
65.692,0.764734
65.693,0.764765
65.694,0.764796
65.695,0.764826
65.696,0.764857
65.697,0.764888
65.698,0.764918
65.699,0.764949
65.700,0.764980
65.701,0.765011
65.702,0.765041
65.703,0.765072
65.704,0.765103
65.705,0.765133
65.706,0.765164
65.707,0.765195
65.708,0.765225
65.709,0.765256
65.710,0.765287
65.711,0.765318
65.712,0.765348
65.713,0.765379
65.714,0.765409
65.715,0.765440
65.716,0.765471
65.717,0.765501
65.718,0.765532
65.719,0.765563
65.720,0.765593
65.721,0.765624
65.722,0.765655
65.723,0.765685
65.724,0.765716
65.725,0.765746
65.726,0.765777
65.727,0.765808
65.728,0.765838
65.729,0.765869
65.730,0.765900
65.731,0.765930
65.732,0.765961
65.733,0.765991
65.734,0.766022
65.735,0.766052
65.736,0.766083
65.737,0.766114
65.738,0.766144
65.739,0.766175
65.740,0.766205
65.741,0.766236
65.742,0.766266
65.743,0.766297
65.744,0.766328
65.745,0.766358
65.746,0.766389
65.747,0.766419
65.748,0.766450
65.749,0.766480
65.750,0.766511
65.751,0.766541
65.752,0.766572
65.753,0.766602
65.754,0.766633
65.755,0.766663
65.756,0.766694
65.757,0.766724
65.758,0.766755
65.759,0.766785
65.760,0.766816
65.761,0.766846
65.762,0.766877
65.763,0.766907
65.764,0.766938
65.765,0.766968
65.766,0.766999
65.767,0.767029
65.768,0.767060
65.769,0.767090
65.770,0.767121
65.771,0.767151
65.772,0.767181
65.773,0.767212
65.774,0.767242
65.775,0.767273
65.776,0.767303
65.777,0.767334
65.778,0.767364
65.779,0.767394
65.780,0.767425
65.781,0.767455
65.782,0.767486
65.783,0.767516
65.784,0.767547
65.785,0.767577
65.786,0.767607
65.787,0.767638
65.788,0.767668
65.789,0.767698
65.790,0.767729
65.791,0.767759
65.792,0.767790
65.793,0.767820
65.794,0.767850
65.795,0.767881
65.796,0.767911
65.797,0.767941
65.798,0.767972
65.799,0.768002
65.800,0.768032
65.801,0.768063
65.802,0.768093
65.803,0.768123
65.804,0.768154
65.805,0.768184
65.806,0.768214
65.807,0.768245
65.808,0.768275
65.809,0.768305
65.810,0.768336
65.811,0.768366
65.812,0.768396
65.813,0.768427
65.814,0.768457
65.815,0.768487
65.816,0.768517
65.817,0.768548
65.818,0.768578
65.819,0.768608
65.820,0.768639
65.821,0.768669
65.822,0.768699
65.823,0.768729
65.824,0.768760
65.825,0.768790
65.826,0.768820
65.827,0.768850
65.828,0.768881
65.829,0.768911
65.830,0.768941
65.831,0.768971
65.832,0.769002
65.833,0.769032
65.834,0.769062
65.835,0.769092
65.836,0.769122
65.837,0.769153
65.838,0.769183
65.839,0.769213
65.840,0.769243
65.841,0.769273
65.842,0.769304
65.843,0.769334
65.844,0.769364
65.845,0.769394
65.846,0.769424
65.847,0.769454
65.848,0.769485
65.849,0.769515
65.850,0.769545
65.851,0.769575
65.852,0.769605
65.853,0.769635
65.854,0.769666
65.855,0.769696
65.856,0.769726
65.857,0.769756
65.858,0.769786
65.859,0.769816
65.860,0.769846
65.861,0.769877
65.862,0.769907
65.863,0.769937
65.864,0.769967
65.865,0.769997
65.866,0.770027
65.867,0.770057
65.868,0.770087
65.869,0.770117
65.870,0.770147
65.871,0.770178
65.872,0.770208
65.873,0.770238
65.874,0.770268
65.875,0.770298
65.876,0.770328
65.877,0.770358
65.878,0.770388
65.879,0.770418
65.880,0.770448
65.881,0.770478
65.882,0.770508
65.883,0.770538
65.884,0.770568
65.885,0.770598
65.886,0.770628
65.887,0.770658
65.888,0.770688
65.889,0.770718
65.890,0.770749
65.891,0.770779
65.892,0.770809
65.893,0.770839
65.894,0.770869
65.895,0.770899
65.896,0.770929
65.897,0.770959
65.898,0.770989
65.899,0.771018
65.900,0.771048
65.901,0.771078
65.902,0.771108
65.903,0.771138
65.904,0.771168
65.905,0.771198
65.906,0.771228
65.907,0.771258
65.908,0.771288
65.909,0.771318
65.910,0.771348
65.911,0.771378
65.912,0.771408
65.913,0.771438
65.914,0.771468
65.915,0.771498
65.916,0.771528
65.917,0.771558
65.918,0.771588
65.919,0.771617
65.920,0.771647
65.921,0.771677
65.922,0.771707
65.923,0.771737
65.924,0.771767
65.925,0.771797
65.926,0.771827
65.927,0.771857
65.928,0.771887
65.929,0.771916
65.930,0.771946
65.931,0.771976
65.932,0.772006
65.933,0.772036
65.934,0.772066
65.935,0.772096
65.936,0.772125
65.937,0.772155
65.938,0.772185
65.939,0.772215
65.940,0.772245
65.941,0.772275
65.942,0.772304
65.943,0.772334
65.944,0.772364
65.945,0.772394
65.946,0.772424
65.947,0.772454
65.948,0.772483
65.949,0.772513
65.950,0.772543
65.951,0.772573
65.952,0.772603
65.953,0.772632
65.954,0.772662
65.955,0.772692
65.956,0.772722
65.957,0.772751
65.958,0.772781
65.959,0.772811
65.960,0.772841
65.961,0.772871
65.962,0.772900
65.963,0.772930
65.964,0.772960
65.965,0.772990
65.966,0.773019
65.967,0.773049
65.968,0.773079
65.969,0.773109
65.970,0.773138
65.971,0.773168
65.972,0.773198
65.973,0.773227
65.974,0.773257
65.975,0.773287
65.976,0.773317
65.977,0.773346
65.978,0.773376
65.979,0.773406
65.980,0.773435
65.981,0.773465
65.982,0.773495
65.983,0.773524
65.984,0.773554
65.985,0.773584
65.986,0.773613
65.987,0.773643
65.988,0.773673
65.989,0.773702
65.990,0.773732
65.991,0.773762
65.992,0.773791
65.993,0.773821
65.994,0.773851
65.995,0.773880
65.996,0.773910
65.997,0.773940
65.998,0.773969
65.999,0.773999
66.000,0.774029
66.001,0.774058
66.002,0.774088
66.003,0.774117
66.004,0.774147
66.005,0.774177
66.006,0.774206
66.007,0.774236
66.008,0.774265
66.009,0.774295
66.010,0.774325
66.011,0.774354
66.012,0.774384
66.013,0.774413
66.014,0.774443
66.015,0.774472
66.016,0.774502
66.017,0.774532
66.018,0.774561
66.019,0.774591
66.020,0.774620
66.021,0.774650
66.022,0.774679
66.023,0.774709
66.024,0.774738
66.025,0.774768
66.026,0.774798
66.027,0.774827
66.028,0.774857
66.029,0.774886
66.030,0.774916
66.031,0.774945
66.032,0.774975
66.033,0.775004
66.034,0.775034
66.035,0.775063
66.036,0.775093
66.037,0.775122
66.038,0.775152
66.039,0.775181
66.040,0.775211
66.041,0.775240
66.042,0.775270
66.043,0.775299
66.044,0.775329
66.045,0.775358
66.046,0.775387
66.047,0.775417
66.048,0.775446
66.049,0.775476
66.050,0.775505
66.051,0.775535
66.052,0.775564
66.053,0.775594
66.054,0.775623
66.055,0.775652
66.056,0.775682
66.057,0.775711
66.058,0.775741
66.059,0.775770
66.060,0.775800
66.061,0.775829
66.062,0.775858
66.063,0.775888
66.064,0.775917
66.065,0.775947
66.066,0.775976
66.067,0.776005
66.068,0.776035
66.069,0.776064
66.070,0.776093
66.071,0.776123
66.072,0.776152
66.073,0.776182
66.074,0.776211
66.075,0.776240
66.076,0.776270
66.077,0.776299
66.078,0.776328
66.079,0.776358
66.080,0.776387
66.081,0.776416
66.082,0.776446
66.083,0.776475
66.084,0.776504
66.085,0.776534
66.086,0.776563
66.087,0.776592
66.088,0.776622
66.089,0.776651
66.090,0.776680
66.091,0.776710
66.092,0.776739
66.093,0.776768
66.094,0.776797
66.095,0.776827
66.096,0.776856
66.097,0.776885
66.098,0.776915
66.099,0.776944
66.100,0.776973
66.101,0.777002
66.102,0.777032
66.103,0.777061
66.104,0.777090
66.105,0.777119
66.106,0.777149
66.107,0.777178
66.108,0.777207
66.109,0.777236
66.110,0.777266
66.111,0.777295
66.112,0.777324
66.113,0.777353
66.114,0.777383
66.115,0.777412
66.116,0.777441
66.117,0.777470
66.118,0.777499
66.119,0.777529
66.120,0.777558
66.121,0.777587
66.122,0.777616
66.123,0.777645
66.124,0.777675
66.125,0.777704
66.126,0.777733
66.127,0.777762
66.128,0.777791
66.129,0.777821
66.130,0.777850
66.131,0.777879
66.132,0.777908
66.133,0.777937
66.134,0.777966
66.135,0.777996
66.136,0.778025
66.137,0.778054
66.138,0.778083
66.139,0.778112
66.140,0.778141
66.141,0.778170
66.142,0.778199
66.143,0.778229
66.144,0.778258
66.145,0.778287
66.146,0.778316
66.147,0.778345
66.148,0.778374
66.149,0.778403
66.150,0.778432
66.151,0.778461
66.152,0.778491
66.153,0.778520
66.154,0.778549
66.155,0.778578
66.156,0.778607
66.157,0.778636
66.158,0.778665
66.159,0.778694
66.160,0.778723
66.161,0.778752
66.162,0.778781
66.163,0.778810
66.164,0.778839
66.165,0.778868
66.166,0.778897
66.167,0.778927
66.168,0.778956
66.169,0.778985
66.170,0.779014
66.171,0.779043
66.172,0.779072
66.173,0.779101
66.174,0.779130
66.175,0.779159
66.176,0.779188
66.177,0.779217
66.178,0.779246
66.179,0.779275
66.180,0.779304
66.181,0.779333
66.182,0.779362
66.183,0.779391
66.184,0.779420
66.185,0.779449
66.186,0.779478
66.187,0.779507
66.188,0.779536
66.189,0.779565
66.190,0.779593
66.191,0.779622
66.192,0.779651
66.193,0.779680
66.194,0.779709
66.195,0.779738
66.196,0.779767
66.197,0.779796
66.198,0.779825
66.199,0.779854
66.200,0.779883
66.201,0.779912
66.202,0.779941
66.203,0.779970
66.204,0.779999
66.205,0.780027
66.206,0.780056
66.207,0.780085
66.208,0.780114
66.209,0.780143
66.210,0.780172
66.211,0.780201
66.212,0.780230
66.213,0.780259
66.214,0.780287
66.215,0.780316
66.216,0.780345
66.217,0.780374
66.218,0.780403
66.219,0.780432
66.220,0.780461
66.221,0.780490
66.222,0.780518
66.223,0.780547
66.224,0.780576
66.225,0.780605
66.226,0.780634
66.227,0.780663
66.228,0.780691
66.229,0.780720
66.230,0.780749
66.231,0.780778
66.232,0.780807
66.233,0.780836
66.234,0.780864
66.235,0.780893
66.236,0.780922
66.237,0.780951
66.238,0.780980
66.239,0.781008
66.240,0.781037
66.241,0.781066
66.242,0.781095
66.243,0.781123
66.244,0.781152
66.245,0.781181
66.246,0.781210
66.247,0.781239
