Wavelength,Reflectance
400.000,0.815387
400.100,0.815358
400.200,0.815330
400.300,0.815301
400.400,0.815274
400.500,0.815244
400.600,0.815217
400.700,0.815188
400.800,0.815159
400.900,0.815131
401.000,0.815102
401.100,0.815078
401.200,0.815051
401.300,0.815027
401.400,0.815000
401.500,0.814974
401.600,0.814950
401.700,0.814923
401.800,0.814899
401.900,0.814873
402.000,0.814849
402.100,0.814823
402.200,0.814799
402.300,0.814772
402.400,0.814749
402.500,0.814723
402.600,0.814700
402.700,0.814676
402.800,0.814654
402.900,0.814631
403.000,0.814610
403.100,0.814586
403.200,0.814565
403.300,0.814542
403.400,0.814521
403.500,0.814497
403.600,0.814476
403.700,0.814453
403.800,0.814432
403.900,0.814409
404.000,0.814388
404.100,0.814364
404.200,0.814345
404.300,0.814323
404.400,0.814305
404.500,0.814284
404.600,0.814266
404.700,0.814245
404.800,0.814227
404.900,0.814206
405.000,0.814188
405.100,0.814167
405.200,0.814149
405.300,0.814131
405.400,0.814111
405.500,0.814093
405.600,0.814072
405.700,0.814054
405.800,0.814035
405.900,0.814019
406.000,0.814001
406.100,0.813985
406.200,0.813967
406.300,0.813951
406.400,0.813932
406.500,0.813917
406.600,0.813899
406.700,0.813883
406.800,0.813865
406.900,0.813849
407.000,0.813831
407.100,0.813816
407.200,0.813798
407.300,0.813782
407.400,0.813766
407.500,0.813752
407.600,0.813736
407.700,0.813723
407.800,0.813707
407.900,0.813693
408.000,0.813678
408.100,0.813664
408.200,0.813648
408.300,0.813635
408.400,0.813619
408.500,0.813606
408.600,0.813593
408.700,0.813577
408.800,0.813565
408.900,0.813549
409.000,0.813537
409.100,0.813523
409.200,0.813512
409.300,0.813498
409.400,0.813487
409.500,0.813473
409.600,0.813462
409.700,0.813448
409.800,0.813437
409.900,0.813424
410.000,0.813413
410.100,0.813399
410.200,0.813388
410.300,0.813374
410.400,0.813363
410.500,0.813349
410.600,0.813340
410.700,0.813328
410.800,0.813319
410.900,0.813308
411.000,0.813298
411.100,0.813287
411.200,0.813278
411.300,0.813265
411.400,0.813256
411.500,0.813245
411.600,0.813235
411.700,0.813226
411.800,0.813215
411.900,0.813206
412.000,0.813194
412.100,0.813185
412.200,0.813175
412.300,0.813167
412.400,0.813157
412.500,0.813150
412.600,0.813140
412.700,0.813132
412.800,0.813122
412.900,0.813115
413.000,0.813104
413.100,0.813097
413.200,0.813087
413.300,0.813080
413.400,0.813070
413.500,0.813062
413.600,0.813052
413.700,0.813045
413.800,0.813037
413.900,0.813031
414.000,0.813022
414.100,0.813016
414.200,0.813008
414.300,0.813002
414.400,0.812993
414.500,0.812987
414.600,0.812979
414.700,0.812973
414.800,0.812964
414.900,0.812959
415.000,0.812953
415.100,0.812944
415.200,0.812938
415.300,0.812933
415.400,0.812926
415.500,0.812921
415.600,0.812917
415.700,0.812912
415.800,0.812905
415.900,0.812900
416.000,0.812896
416.100,0.812888
416.200,0.812884
416.300,0.812880
416.400,0.812872
416.500,0.812868
416.600,0.812863
416.700,0.812856
416.800,0.812852
416.900,0.812848
417.000,0.812845
417.100,0.812838
417.200,0.812835
417.300,0.812831
417.400,0.812825
417.500,0.812822
417.600,0.812819
417.700,0.812812
417.800,0.812809
417.900,0.812805
418.000,0.812800
418.100,0.812796
418.200,0.812793
418.300,0.812789
418.400,0.812783
418.500,0.812780
418.600,0.812778
418.700,0.812773
418.800,0.812771
418.900,0.812768
419.000,0.812763
419.100,0.812761
419.200,0.812759
419.300,0.812753
419.400,0.812751
419.500,0.812749
419.600,0.812746
419.700,0.812741
419.800,0.812739
419.900,0.812737
420.000,0.812731
420.100,0.812729
420.200,0.812728
420.300,0.812724
420.400,0.812723
420.500,0.812721
420.600,0.812717
420.700,0.812716
420.800,0.812714
420.900,0.812712
421.000,0.812708
421.100,0.812706
421.200,0.812705
421.300,0.812700
421.400,0.812698
421.500,0.812697
421.600,0.812693
421.700,0.812692
421.800,0.812691
421.900,0.812690
422.000,0.812687
422.100,0.812686
422.200,0.812685
422.300,0.812682
422.400,0.812681
422.500,0.812680
422.600,0.812676
422.700,0.812675
422.800,0.812675
422.900,0.812671
423.000,0.812670
423.100,0.812669
423.200,0.812668
423.300,0.812666
423.400,0.812665
423.500,0.812665
423.600,0.812662
423.700,0.812661
423.800,0.812661
423.900,0.812658
424.000,0.812658
424.100,0.812658
424.200,0.812655
424.300,0.812654
424.400,0.812654
424.500,0.812653
424.600,0.812650
424.700,0.812650
424.800,0.812649
424.900,0.812647
425.000,0.812647
425.100,0.812647
425.200,0.812645
425.300,0.812645
425.400,0.812645
425.500,0.812643
425.600,0.812643
425.700,0.812643
425.800,0.812643
425.900,0.812640
426.000,0.812640
426.100,0.812640
426.200,0.812638
426.300,0.812638
426.400,0.812638
426.500,0.812635
426.600,0.812636
426.700,0.812636
426.800,0.812634
426.900,0.812635
427.000,0.812635
427.100,0.812636
427.200,0.812633
427.300,0.812634
427.400,0.812634
427.500,0.812632
427.600,0.812632
427.700,0.812632
427.800,0.812633
427.900,0.812633
428.000,0.812634
428.100,0.812634
428.200,0.812632
428.300,0.812633
428.400,0.812634
428.500,0.812634
428.600,0.812635
428.700,0.812635
428.800,0.812636
428.900,0.812637
429.000,0.812637
429.100,0.812638
429.200,0.812638
429.300,0.812639
429.400,0.812637
429.500,0.812637
429.600,0.812638
429.700,0.812639
429.800,0.812639
429.900,0.812640
430.000,0.812641
430.100,0.812642
430.200,0.812643
430.300,0.812643
430.400,0.812644
430.500,0.812645
430.600,0.812643
430.700,0.812644
430.800,0.812644
430.900,0.812644
431.000,0.812645
431.100,0.812646
431.200,0.812647
431.300,0.812648
431.400,0.812649
431.500,0.812649
431.600,0.812650
431.700,0.812651
431.800,0.812649
431.900,0.812650
432.000,0.812651
432.100,0.812652
432.200,0.812652
432.300,0.812653
432.400,0.812653
432.500,0.812654
432.600,0.812655
432.700,0.812655
432.800,0.812656
432.900,0.812657
433.000,0.812655
433.100,0.812656
433.200,0.812657
433.300,0.812658
433.400,0.812659
433.500,0.812659
433.600,0.812660
433.700,0.812660
433.800,0.812660
433.900,0.812662
434.000,0.812662
434.100,0.812663
434.200,0.812660
434.300,0.812661
434.400,0.812662
434.500,0.812663
434.600,0.812663
434.700,0.812664
434.800,0.812665
434.900,0.812666
435.000,0.812666
435.100,0.812667
435.200,0.812668
435.300,0.812668
435.400,0.812666
435.500,0.812667
435.600,0.812667
435.700,0.812668
435.800,0.812668
435.900,0.812669
436.000,0.812670
436.100,0.812670
436.200,0.812671
436.300,0.812671
436.400,0.812672
436.500,0.812673
436.600,0.812671
436.700,0.812671
436.800,0.812672
436.900,0.812672
437.000,0.812673
437.100,0.812673
437.200,0.812673
437.300,0.812674
437.400,0.812674
437.500,0.812674
437.600,0.812675
437.700,0.812675
437.800,0.812673
437.900,0.812673
438.000,0.812674
438.100,0.812674
438.200,0.812674
438.300,0.812675
438.400,0.812675
438.500,0.812675
438.600,0.812676
438.700,0.812676
438.800,0.812676
438.900,0.812676
439.000,0.812674
439.100,0.812674
439.200,0.812674
439.300,0.812675
439.400,0.812675
439.500,0.812675
439.600,0.812675
439.700,0.812675
439.800,0.812675
439.900,0.812673
440.000,0.812673
440.100,0.812673
440.200,0.812673
440.300,0.812673
440.400,0.812673
440.500,0.812673
440.600,0.812670
440.700,0.812670
440.800,0.812671
440.900,0.812671
441.000,0.812670
441.100,0.812670
441.200,0.812670
441.300,0.812667
441.400,0.812668
441.500,0.812667
441.600,0.812667
441.700,0.812667
441.800,0.812667
441.900,0.812667
442.000,0.812664
442.100,0.812664
442.200,0.812663
442.300,0.812663
442.400,0.812663
442.500,0.812663
442.600,0.812662
442.700,0.812659
442.800,0.812659
442.900,0.812659
443.000,0.812659
443.100,0.812658
443.200,0.812657
443.300,0.812658
443.400,0.812654
443.500,0.812654
443.600,0.812653
443.700,0.812652
443.800,0.812652
443.900,0.812652
444.000,0.812651
444.100,0.812648
444.200,0.812647
444.300,0.812647
444.400,0.812647
444.500,0.812646
444.600,0.812645
444.700,0.812645
444.800,0.812642
444.900,0.812641
445.000,0.812640
445.100,0.812639
445.200,0.812639
445.300,0.812638
445.400,0.812637
445.500,0.812634
445.600,0.812633
445.700,0.812633
445.800,0.812632
445.900,0.812631
446.000,0.812630
446.100,0.812630
446.200,0.812628
446.300,0.812625
446.400,0.812624
446.500,0.812623
446.600,0.812622
446.700,0.812621
446.800,0.812620
446.900,0.812619
447.000,0.812616
447.100,0.812615
447.200,0.812614
447.300,0.812612
447.400,0.812611
447.500,0.812611
447.600,0.812609
447.700,0.812605
447.800,0.812604
447.900,0.812603
448.000,0.812602
448.100,0.812601
448.200,0.812600
448.300,0.812599
448.400,0.812595
448.500,0.812594
448.600,0.812592
448.700,0.812591
448.800,0.812590
448.900,0.812589
449.000,0.812587
449.100,0.812583
449.200,0.812582
449.300,0.812581
449.400,0.812579
449.500,0.812578
449.600,0.812577
449.700,0.812575
449.800,0.812571
449.900,0.812569
450.000,0.812568
450.100,0.812567
450.200,0.812565
450.300,0.812563
450.400,0.812562
450.500,0.812558
450.600,0.812556
450.700,0.812555
450.800,0.812553
450.900,0.812552
451.000,0.812550
451.100,0.812549
451.200,0.812544
451.300,0.812543
451.400,0.812541
451.500,0.812539
451.600,0.812538
451.700,0.812536
451.800,0.812534
451.900,0.812530
452.000,0.812528
452.100,0.812526
452.200,0.812524
452.300,0.812522
452.400,0.812518
452.500,0.812516
452.600,0.812514
452.700,0.812513
452.800,0.812508
452.900,0.812506
453.000,0.812504
453.100,0.812502
453.200,0.812498
453.300,0.812496
453.400,0.812494
453.500,0.812492
453.600,0.812487
453.700,0.812485
453.800,0.812483
453.900,0.812479
454.000,0.812477
454.100,0.812475
454.200,0.812473
454.300,0.812468
454.400,0.812466
454.500,0.812464
454.600,0.812461
454.700,0.812457
454.800,0.812455
454.900,0.812453
455.000,0.812448
455.100,0.812446
455.200,0.812443
455.300,0.812441
455.400,0.812436
455.500,0.812434
455.600,0.812431
455.700,0.812429
455.800,0.812424
455.900,0.812422
456.000,0.812419
456.100,0.812417
456.200,0.812412
456.300,0.812410
456.400,0.812407
456.500,0.812402
456.600,0.812400
456.700,0.812397
456.800,0.812394
456.900,0.812389
457.000,0.812387
457.100,0.812384
457.200,0.812382
457.300,0.812377
457.400,0.812374
457.500,0.812371
457.600,0.812366
457.700,0.812364
457.800,0.812361
457.900,0.812358
458.000,0.812353
458.100,0.812350
458.200,0.812347
458.300,0.812345
458.400,0.812339
458.500,0.812336
458.600,0.812333
458.700,0.812331
458.800,0.812325
458.900,0.812322
459.000,0.812319
459.100,0.812314
459.200,0.812311
459.300,0.812308
459.400,0.812306
459.500,0.812300
459.600,0.812297
459.700,0.812294
459.800,0.812291
459.900,0.812285
460.000,0.812282
460.100,0.812279
460.200,0.812273
460.300,0.812270
460.400,0.812266
460.500,0.812264
460.600,0.812258
460.700,0.812254
460.800,0.812251
460.900,0.812248
461.000,0.812242
461.100,0.812239
461.200,0.812236
461.300,0.812233
461.400,0.812226
461.500,0.812223
461.600,0.812219
461.700,0.812213
461.800,0.812210
461.900,0.812206
462.000,0.812203
462.100,0.812196
462.200,0.812193
462.300,0.812189
462.400,0.812185
462.500,0.812180
462.600,0.812176
462.700,0.812172
462.800,0.812166
462.900,0.812162
463.000,0.812158
463.100,0.812154
463.200,0.812148
463.300,0.812144
463.400,0.812140
463.500,0.812136
463.600,0.812129
463.700,0.812125
463.800,0.812122
463.900,0.812117
464.000,0.812111
464.100,0.812107
464.200,0.812103
464.300,0.812099
464.400,0.812095
464.500,0.812090
464.600,0.812088
464.700,0.812084
464.800,0.812080
464.900,0.812075
465.000,0.812071
465.100,0.812066
465.200,0.812062
465.300,0.812057
465.400,0.812053
465.500,0.812048
465.600,0.812047
465.700,0.812042
465.800,0.812038
465.900,0.812033
466.000,0.812029
466.100,0.812024
466.200,0.812019
466.300,0.812014
466.400,0.812009
466.500,0.812003
466.600,0.812001
466.700,0.811996
466.800,0.811991
466.900,0.811986
467.000,0.811981
467.100,0.811975
467.200,0.811970
467.300,0.811965
467.400,0.811961
467.500,0.811955
467.600,0.811953
467.700,0.811947
467.800,0.811941
467.900,0.811936
468.000,0.811930
468.100,0.811924
468.200,0.811919
468.300,0.811913
468.400,0.811907
468.500,0.811902
468.600,0.811898
468.700,0.811892
468.800,0.811887
468.900,0.811881
469.000,0.811875
469.100,0.811870
469.200,0.811864
469.300,0.811857
469.400,0.811851
469.500,0.811844
469.600,0.811840
469.700,0.811834
469.800,0.811827
469.900,0.811820
470.000,0.811814
470.100,0.811808
470.200,0.811801
470.300,0.811794
470.400,0.811787
470.500,0.811781
470.600,0.811777
470.700,0.811771
470.800,0.811764
470.900,0.811756
471.000,0.811749
471.100,0.811741
471.200,0.811734
471.300,0.811727
471.400,0.811719
471.500,0.811712
471.600,0.811707
471.700,0.811699
471.800,0.811692
471.900,0.811684
472.000,0.811677
472.100,0.811670
472.200,0.811662
472.300,0.811654
472.400,0.811647
472.500,0.811638
472.600,0.811633
472.700,0.811624
472.800,0.811616
472.900,0.811608
473.000,0.811599
473.100,0.811590
473.200,0.811582
473.300,0.811573
473.400,0.811565
473.500,0.811557
473.600,0.811551
473.700,0.811542
473.800,0.811534
473.900,0.811525
474.000,0.811516
474.100,0.811507
474.200,0.811497
474.300,0.811487
474.400,0.811478
474.500,0.811468
474.600,0.811461
474.700,0.811451
474.800,0.811441
474.900,0.811432
475.000,0.811422
475.100,0.811412
475.200,0.811403
475.300,0.811393
475.400,0.811384
475.500,0.811374
475.600,0.811366
475.700,0.811355
475.800,0.811345
475.900,0.811333
476.000,0.811322
476.100,0.811311
476.200,0.811300
476.300,0.811290
476.400,0.811279
476.500,0.811268
476.600,0.811257
476.700,0.811246
476.800,0.811234
476.900,0.811224
477.000,0.811213
477.100,0.811202
477.200,0.811188
477.300,0.811175
477.400,0.811163
477.500,0.811151
477.600,0.811138
477.700,0.811126
477.800,0.811113
477.900,0.811101
478.000,0.811089
478.100,0.811076
478.200,0.811064
478.300,0.811051
478.400,0.811038
478.500,0.811027
478.600,0.811014
478.700,0.811002
478.800,0.810989
478.900,0.810975
479.000,0.810960
479.100,0.810947
479.200,0.810932
479.300,0.810919
479.400,0.810905
479.500,0.810888
479.600,0.810874
479.700,0.810860
479.800,0.810846
479.900,0.810833
480.000,0.810819
480.100,0.810805
480.200,0.810791
480.300,0.810776
480.400,0.810762
480.500,0.810746
480.600,0.810730
480.700,0.810715
480.800,0.810699
480.900,0.810684
481.000,0.810668
481.100,0.810652
481.200,0.810637
481.300,0.810621
481.400,0.810606
481.500,0.810590
481.600,0.810574
481.700,0.810556
481.800,0.810540
481.900,0.810524
482.000,0.810508
482.100,0.810490
482.200,0.810473
482.300,0.810455
482.400,0.810438
482.500,0.810420
482.600,0.810403
482.700,0.810386
482.800,0.810368
482.900,0.810351
483.000,0.810333
483.100,0.810316
483.200,0.810298
483.300,0.810281
483.400,0.810263
483.500,0.810246
483.600,0.810227
483.700,0.810208
483.800,0.810189
483.900,0.810169
484.000,0.810148
484.100,0.810129
484.200,0.810109
484.300,0.810090
484.400,0.810071
484.500,0.810051
484.600,0.810032
484.700,0.810013
484.800,0.809994
484.900,0.809974
485.000,0.809955
485.100,0.809936
485.200,0.809915
485.300,0.809894
485.400,0.809872
485.500,0.809852
485.600,0.809830
485.700,0.809809
485.800,0.809788
485.900,0.809767
486.000,0.809746
486.100,0.809725
486.200,0.809704
486.300,0.809680
486.400,0.809659
486.500,0.809638
486.600,0.809617
486.700,0.809596
486.800,0.809573
486.900,0.809550
487.000,0.809526
487.100,0.809503
487.200,0.809481
487.300,0.809458
487.400,0.809435
487.500,0.809412
487.600,0.809389
487.700,0.809366
487.800,0.809343
487.900,0.809320
488.000,0.809297
488.100,0.809274
488.200,0.809251
488.300,0.809229
488.400,0.809204
488.500,0.809176
488.600,0.809152
488.700,0.809127
488.800,0.809102
488.900,0.809077
489.000,0.809053
489.100,0.809028
489.200,0.809003
489.300,0.808978
489.400,0.808954
489.500,0.808929
489.600,0.808904
489.700,0.808880
489.800,0.808855
489.900,0.808828
490.000,0.808801
490.100,0.808775
490.200,0.808748
490.300,0.808719
490.400,0.808693
490.500,0.808667
490.600,0.808641
490.700,0.808611
490.800,0.808585
490.900,0.808559
491.000,0.808533
491.100,0.808506
491.200,0.808478
491.300,0.808451
491.400,0.808425
491.500,0.808398
491.600,0.808368
491.700,0.808340
491.800,0.808312
491.900,0.808284
492.000,0.808254
492.100,0.808226
492.200,0.808199
492.300,0.808171
492.400,0.808143
492.500,0.808113
492.600,0.808085
492.700,0.808057
492.800,0.808029
492.900,0.807999
493.000,0.807971
493.100,0.807943
493.200,0.807914
493.300,0.807885
493.400,0.807854
493.500,0.807825
493.600,0.807796
493.700,0.807767
493.800,0.807736
493.900,0.807707
494.000,0.807678
494.100,0.807650
494.200,0.807618
494.300,0.807589
494.400,0.807560
494.500,0.807532
494.600,0.807503
494.700,0.807471
494.800,0.807441
494.900,0.807411
495.000,0.807382
495.100,0.807350
495.200,0.807320
495.300,0.807290
495.400,0.807260
495.500,0.807228
495.600,0.807198
495.700,0.807168
495.800,0.807139
495.900,0.807110
496.000,0.807077
496.100,0.807047
496.200,0.807018
496.300,0.806988
496.400,0.806955
496.500,0.806925
496.600,0.806895
496.700,0.806865
496.800,0.806832
496.900,0.806802
497.000,0.806772
497.100,0.806742
497.200,0.806711
497.300,0.806679
497.400,0.806649
497.500,0.806619
497.600,0.806589
497.700,0.806556
497.800,0.806526
497.900,0.806496
498.000,0.806465
498.100,0.806435
498.200,0.806402
498.300,0.806372
498.400,0.806342
498.500,0.806311
498.600,0.806278
498.700,0.806248
498.800,0.806218
498.900,0.806188
499.000,0.806155
499.100,0.806125
499.200,0.806094
499.300,0.806064
499.400,0.806034
499.500,0.806001
499.600,0.805971
499.700,0.805941
499.800,0.805911
499.900,0.805878
500.000,0.805848
500.100,0.805818
500.200,0.805788
500.300,0.805755
500.400,0.805725
500.500,0.805695
500.600,0.805665
500.700,0.805635
500.800,0.805602
500.900,0.805572
501.000,0.805542
501.100,0.805512
501.200,0.805480
501.300,0.805450
501.400,0.805421
501.500,0.805391
501.600,0.805359
501.700,0.805329
501.800,0.805299
501.900,0.805270
502.000,0.805240
502.100,0.805208
502.200,0.805178
502.300,0.805148
502.400,0.805119
502.500,0.805087
502.600,0.805057
502.700,0.805028
502.800,0.804999
502.900,0.804967
503.000,0.804939
503.100,0.804910
503.200,0.804881
503.300,0.804852
503.400,0.804820
503.500,0.804791
503.600,0.804762
503.700,0.804733
503.800,0.804701
503.900,0.804672
504.000,0.804643
504.100,0.804614
504.200,0.804585
504.300,0.804554
504.400,0.804526
504.500,0.804498
504.600,0.804470
504.700,0.804439
504.800,0.804411
504.900,0.804383
505.000,0.804355
505.100,0.804324
505.200,0.804295
505.300,0.804267
505.400,0.804239
505.500,0.804211
505.600,0.804179
505.700,0.804151
505.800,0.804123
505.900,0.804096
506.000,0.804065
506.100,0.804038
506.200,0.804011
506.300,0.803983
506.400,0.803954
506.500,0.803926
506.600,0.803899
506.700,0.803871
506.800,0.803844
506.900,0.803813
507.000,0.803786
507.100,0.803758
507.200,0.803730
507.300,0.803700
507.400,0.803673
507.500,0.803646
507.600,0.803620
507.700,0.803593
507.800,0.803564
507.900,0.803538
508.000,0.803511
508.100,0.803485
508.200,0.803456
508.300,0.803429
508.400,0.803402
508.500,0.803375
508.600,0.803348
508.700,0.803319
508.800,0.803292
508.900,0.803265
509.000,0.803238
509.100,0.803210
509.200,0.803184
509.300,0.803159
509.400,0.803133
509.500,0.803107
509.600,0.803079
509.700,0.803053
509.800,0.803028
509.900,0.803002
510.000,0.802976
510.100,0.802947
510.200,0.802920
510.300,0.802894
510.400,0.802868
510.500,0.802839
510.600,0.802813
510.700,0.802789
510.800,0.802764
510.900,0.802739
511.000,0.802711
511.100,0.802686
511.200,0.802661
511.300,0.802636
511.400,0.802608
511.500,0.802583
511.600,0.802558
511.700,0.802532
511.800,0.802507
511.900,0.802479
512.000,0.802453
512.100,0.802428
512.200,0.802403
512.300,0.802376
512.400,0.802351
512.500,0.802327
512.600,0.802303
512.700,0.802278
512.800,0.802251
512.900,0.802227
513.000,0.802202
513.100,0.802177
513.200,0.802150
513.300,0.802125
513.400,0.802100
513.500,0.802075
513.600,0.802050
513.700,0.802022
513.800,0.801998
513.900,0.801974
514.000,0.801951
514.100,0.801924
514.200,0.801900
514.300,0.801877
514.400,0.801853
514.500,0.801829
514.600,0.801802
514.700,0.801778
514.800,0.801753
514.900,0.801729
515.000,0.801702
515.100,0.801678
515.200,0.801653
515.300,0.801629
515.400,0.801605
515.500,0.801579
515.600,0.801556
515.700,0.801533
515.800,0.801510
515.900,0.801483
516.000,0.801460
516.100,0.801436
516.200,0.801413
516.300,0.801389
516.400,0.801362
516.500,0.801338
516.600,0.801315
516.700,0.801291
516.800,0.801267
516.900,0.801240
517.000,0.801217
517.100,0.801194
517.200,0.801171
517.300,0.801145
517.400,0.801123
