Wavelength,Reflectance
400.000,0.926797
400.100,0.926782
400.200,0.926764
400.300,0.926750
400.400,0.926732
400.500,0.926717
400.600,0.926702
400.700,0.926687
400.800,0.926670
400.900,0.926655
401.000,0.926640
401.100,0.926624
401.200,0.926608
401.300,0.926592
401.400,0.926577
401.500,0.926563
401.600,0.926546
401.700,0.926531
401.800,0.926516
401.900,0.926502
402.000,0.926485
402.100,0.926471
402.200,0.926454
402.300,0.926439
402.400,0.926422
402.500,0.926406
402.600,0.926391
402.700,0.926374
402.800,0.926357
402.900,0.926343
403.000,0.926327
403.100,0.926311
403.200,0.926296
403.300,0.926281
403.400,0.926264
403.500,0.926250
403.600,0.926234
403.700,0.926220
403.800,0.926203
403.900,0.926188
404.000,0.926173
404.100,0.926158
404.200,0.926141
404.300,0.926127
404.400,0.926111
404.500,0.926096
404.600,0.926082
404.700,0.926067
404.800,0.926051
404.900,0.926038
405.000,0.926022
405.100,0.926007
405.200,0.925993
405.300,0.925977
405.400,0.925962
405.500,0.925948
405.600,0.925933
405.700,0.925918
405.800,0.925905
405.900,0.925890
406.000,0.925875
406.100,0.925862
406.200,0.925848
406.300,0.925832
406.400,0.925819
406.500,0.925804
406.600,0.925789
406.700,0.925776
406.800,0.925762
406.900,0.925749
407.000,0.925734
407.100,0.925719
407.200,0.925707
407.300,0.925692
407.400,0.925678
407.500,0.925665
407.600,0.925652
407.700,0.925637
407.800,0.925626
407.900,0.925611
408.000,0.925598
408.100,0.925585
408.200,0.925572
408.300,0.925557
408.400,0.925546
408.500,0.925531
408.600,0.925517
408.700,0.925505
408.800,0.925491
408.900,0.925477
409.000,0.925466
409.100,0.925452
409.200,0.925439
409.300,0.925428
409.400,0.925415
409.500,0.925402
409.600,0.925390
409.700,0.925377
409.800,0.925364
409.900,0.925353
410.000,0.925339
410.100,0.925328
410.200,0.925315
410.300,0.925301
410.400,0.925290
410.500,0.925277
410.600,0.925265
410.700,0.925254
410.800,0.925242
410.900,0.925229
411.000,0.925219
411.100,0.925207
411.200,0.925194
411.300,0.925184
411.400,0.925171
411.500,0.925159
411.600,0.925148
411.700,0.925136
411.800,0.925124
411.900,0.925113
412.000,0.925101
412.100,0.925088
412.200,0.925079
412.300,0.925067
412.400,0.925055
412.500,0.925046
412.600,0.925035
412.700,0.925022
412.800,0.925013
412.900,0.925001
413.000,0.924990
413.100,0.924980
413.200,0.924968
413.300,0.924959
413.400,0.924948
413.500,0.924936
413.600,0.924926
413.700,0.924915
413.800,0.924904
413.900,0.924895
414.000,0.924885
414.100,0.924874
414.200,0.924865
414.300,0.924854
414.400,0.924844
414.500,0.924835
414.600,0.924824
414.700,0.924813
414.800,0.924804
414.900,0.924794
415.000,0.924783
415.100,0.924774
415.200,0.924763
415.300,0.924753
415.400,0.924745
415.500,0.924735
415.600,0.924726
415.700,0.924716
415.800,0.924707
415.900,0.924699
416.000,0.924689
416.100,0.924679
416.200,0.924671
416.300,0.924662
416.400,0.924652
416.500,0.924644
416.600,0.924634
416.700,0.924626
416.800,0.924616
416.900,0.924607
417.000,0.924599
417.100,0.924590
417.200,0.924581
417.300,0.924574
417.400,0.924565
417.500,0.924556
417.600,0.924548
417.700,0.924539
417.800,0.924532
417.900,0.924523
418.000,0.924514
418.100,0.924507
418.200,0.924498
418.300,0.924488
418.400,0.924481
418.500,0.924473
418.600,0.924466
418.700,0.924460
418.800,0.924451
418.900,0.924443
419.000,0.924437
419.100,0.924428
419.200,0.924422
419.300,0.924414
419.400,0.924406
419.500,0.924399
419.600,0.924391
419.700,0.924383
419.800,0.924376
419.900,0.924368
420.000,0.924360
420.100,0.924354
420.200,0.924347
420.300,0.924342
420.400,0.924335
420.500,0.924328
420.600,0.924322
420.700,0.924315
420.800,0.924307
420.900,0.924301
421.000,0.924295
421.100,0.924287
421.200,0.924281
421.300,0.924274
421.400,0.924268
421.500,0.924261
421.600,0.924254
421.700,0.924250
421.800,0.924243
421.900,0.924236
422.000,0.924232
422.100,0.924225
422.200,0.924219
422.300,0.924214
422.400,0.924207
422.500,0.924203
422.600,0.924196
422.700,0.924190
422.800,0.924185
422.900,0.924179
423.000,0.924173
423.100,0.924168
423.200,0.924162
423.300,0.924156
423.400,0.924152
423.500,0.924146
423.600,0.924142
423.700,0.924137
423.800,0.924131
423.900,0.924127
424.000,0.924121
424.100,0.924116
424.200,0.924113
424.300,0.924107
424.400,0.924101
424.500,0.924097
424.600,0.924091
424.700,0.924086
424.800,0.924082
424.900,0.924077
425.000,0.924074
425.100,0.924069
425.200,0.924065
425.300,0.924062
425.400,0.924057
425.500,0.924052
425.600,0.924049
425.700,0.924044
425.800,0.924039
425.900,0.924036
426.000,0.924031
426.100,0.924028
426.200,0.924024
426.300,0.924019
426.400,0.924016
426.500,0.924012
426.600,0.924008
426.700,0.924005
426.800,0.924001
426.900,0.923997
427.000,0.923995
427.100,0.923992
427.200,0.923990
427.300,0.923985
427.400,0.923981
427.500,0.923978
427.600,0.923974
427.700,0.923970
427.800,0.923966
427.900,0.923962
428.000,0.923959
428.100,0.923955
428.200,0.923952
428.300,0.923949
428.400,0.923945
428.500,0.923941
428.600,0.923938
428.700,0.923934
428.800,0.923932
428.900,0.923928
429.000,0.923925
429.100,0.923921
429.200,0.923918
429.300,0.923914
429.400,0.923911
429.500,0.923908
429.600,0.923906
429.700,0.923903
429.800,0.923900
429.900,0.923897
430.000,0.923895
430.100,0.923892
430.200,0.923889
430.300,0.923886
430.400,0.923885
430.500,0.923882
430.600,0.923881
430.700,0.923878
430.800,0.923876
430.900,0.923873
431.000,0.923870
431.100,0.923868
431.200,0.923866
431.300,0.923864
431.400,0.923862
431.500,0.923860
431.600,0.923858
431.700,0.923856
431.800,0.923854
431.900,0.923853
432.000,0.923852
432.100,0.923849
432.200,0.923847
432.300,0.923845
432.400,0.923843
432.500,0.923841
432.600,0.923840
432.700,0.923838
432.800,0.923837
432.900,0.923835
433.000,0.923834
433.100,0.923833
433.200,0.923832
433.300,0.923831
433.400,0.923830
433.500,0.923829
433.600,0.923827
433.700,0.923826
433.800,0.923825
433.900,0.923824
434.000,0.923823
434.100,0.923821
434.200,0.923820
434.300,0.923819
434.400,0.923818
434.500,0.923818
434.600,0.923818
434.700,0.923817
434.800,0.923817
434.900,0.923816
435.000,0.923815
435.100,0.923815
435.200,0.923815
435.300,0.923814
435.400,0.923814
435.500,0.923813
435.600,0.923813
435.700,0.923812
435.800,0.923812
435.900,0.923812
436.000,0.923812
436.100,0.923812
436.200,0.923812
436.300,0.923812
436.400,0.923813
436.500,0.923813
436.600,0.923815
436.700,0.923815
436.800,0.923815
436.900,0.923815
437.000,0.923816
437.100,0.923816
437.200,0.923816
437.300,0.923816
437.400,0.923816
437.500,0.923816
437.600,0.923818
437.700,0.923818
437.800,0.923819
437.900,0.923820
438.000,0.923821
438.100,0.923821
438.200,0.923823
438.300,0.923824
438.400,0.923824
438.500,0.923825
438.600,0.923825
438.700,0.923827
438.800,0.923827
438.900,0.923828
439.000,0.923829
439.100,0.923830
439.200,0.923831
439.300,0.923833
439.400,0.923835
439.500,0.923836
439.600,0.923838
439.700,0.923839
439.800,0.923841
439.900,0.923843
440.000,0.923844
440.100,0.923845
440.200,0.923846
440.300,0.923849
440.400,0.923850
440.500,0.923851
440.600,0.923854
440.700,0.923856
440.800,0.923859
440.900,0.923861
441.000,0.923863
441.100,0.923864
441.200,0.923867
441.300,0.923869
441.400,0.923871
441.500,0.923873
441.600,0.923875
441.700,0.923877
441.800,0.923879
441.900,0.923882
442.000,0.923883
442.100,0.923886
442.200,0.923887
442.300,0.923890
442.400,0.923893
442.500,0.923896
442.600,0.923898
442.700,0.923903
442.800,0.923905
442.900,0.923908
443.000,0.923911
443.100,0.923913
443.200,0.923916
443.300,0.923919
443.400,0.923922
443.500,0.923924
443.600,0.923927
443.700,0.923929
443.800,0.923932
443.900,0.923935
444.000,0.923938
444.100,0.923942
444.200,0.923945
444.300,0.923949
444.400,0.923952
444.500,0.923955
444.600,0.923958
444.700,0.923961
444.800,0.923967
444.900,0.923970
445.000,0.923973
445.100,0.923976
445.200,0.923980
445.300,0.923983
445.400,0.923986
445.500,0.923990
445.600,0.923994
445.700,0.923998
445.800,0.924002
445.900,0.924006
446.000,0.924010
446.100,0.924014
446.200,0.924018
446.300,0.924021
446.400,0.924025
446.500,0.924029
446.600,0.924033
446.700,0.924037
446.800,0.924041
446.900,0.924044
447.000,0.924051
447.100,0.924055
447.200,0.924059
447.300,0.924063
447.400,0.924068
447.500,0.924073
447.600,0.924077
447.700,0.924082
447.800,0.924086
447.900,0.924091
448.000,0.924095
448.100,0.924099
448.200,0.924104
448.300,0.924109
448.400,0.924113
448.500,0.924117
448.600,0.924122
448.700,0.924127
448.800,0.924132
448.900,0.924137
449.000,0.924142
449.100,0.924149
449.200,0.924155
449.300,0.924159
449.400,0.924164
449.500,0.924169
449.600,0.924175
449.700,0.924180
449.800,0.924185
449.900,0.924190
450.000,0.924195
450.100,0.924200
450.200,0.924205
450.300,0.924210
450.400,0.924217
450.500,0.924223
450.600,0.924228
450.700,0.924233
450.800,0.924240
450.900,0.924245
451.000,0.924250
451.100,0.924256
451.200,0.924264
451.300,0.924269
451.400,0.924275
451.500,0.924280
451.600,0.924286
451.700,0.924292
451.800,0.924298
451.900,0.924304
452.000,0.924311
452.100,0.924317
452.200,0.924323
452.300,0.924329
452.400,0.924336
452.500,0.924342
452.600,0.924348
452.700,0.924354
452.800,0.924362
452.900,0.924367
453.000,0.924372
453.100,0.924378
453.200,0.924385
453.300,0.924391
453.400,0.924398
453.500,0.924404
453.600,0.924412
453.700,0.924419
453.800,0.924425
453.900,0.924432
454.000,0.924440
454.100,0.924446
454.200,0.924453
454.300,0.924460
454.400,0.924468
454.500,0.924473
454.600,0.924479
454.700,0.924486
454.800,0.924493
454.900,0.924500
455.000,0.924507
455.100,0.924516
455.200,0.924523
455.300,0.924530
455.400,0.924538
455.500,0.924546
455.600,0.924553
455.700,0.924561
455.800,0.924568
455.900,0.924576
456.000,0.924582
456.100,0.924589
456.200,0.924598
456.300,0.924605
456.400,0.924612
456.500,0.924619
456.600,0.924628
456.700,0.924636
456.800,0.924644
456.900,0.924652
457.000,0.924661
457.100,0.924669
457.200,0.924677
457.300,0.924686
457.400,0.924694
457.500,0.924701
457.600,0.924709
457.700,0.924717
457.800,0.924726
457.900,0.924733
458.000,0.924742
458.100,0.924750
458.200,0.924759
458.300,0.924768
458.400,0.924777
458.500,0.924786
458.600,0.924795
458.700,0.924804
458.800,0.924813
458.900,0.924820
459.000,0.924829
459.100,0.924838
459.200,0.924847
459.300,0.924855
459.400,0.924865
459.500,0.924874
459.600,0.924882
459.700,0.924891
459.800,0.924901
459.900,0.924911
460.000,0.924920
460.100,0.924930
460.200,0.924940
460.300,0.924949
460.400,0.924957
460.500,0.924967
460.600,0.924977
460.700,0.924986
460.800,0.924996
460.900,0.925005
461.000,0.925015
461.100,0.925024
461.200,0.925034
461.300,0.925044
461.400,0.925054
461.500,0.925065
461.600,0.925075
461.700,0.925085
461.800,0.925096
461.900,0.925104
462.000,0.925115
462.100,0.925125
462.200,0.925136
462.300,0.925146
462.400,0.925156
462.500,0.925167
462.600,0.925177
462.700,0.925187
462.800,0.925198
462.900,0.925208
463.000,0.925219
463.100,0.925231
463.200,0.925242
463.300,0.925252
463.400,0.925261
463.500,0.925273
463.600,0.925284
463.700,0.925295
463.800,0.925306
463.900,0.925317
464.000,0.925328
464.100,0.925340
464.200,0.925350
464.300,0.925361
464.400,0.925373
464.500,0.925384
464.600,0.925395
464.700,0.925407
464.800,0.925419
464.900,0.925430
465.000,0.925442
465.100,0.925454
465.200,0.925466
465.300,0.925477
465.400,0.925489
465.500,0.925501
465.600,0.925512
465.700,0.925524
465.800,0.925536
465.900,0.925548
466.000,0.925560
466.100,0.925572
466.200,0.925584
466.300,0.925597
466.400,0.925609
466.500,0.925622
466.600,0.925634
466.700,0.925647
466.800,0.925659
466.900,0.925671
467.000,0.925684
467.100,0.925698
467.200,0.925710
467.300,0.925723
467.400,0.925735
467.500,0.925747
467.600,0.925760
467.700,0.925773
467.800,0.925786
467.900,0.925800
468.000,0.925813
468.100,0.925826
468.200,0.925840
468.300,0.925853
468.400,0.925866
468.500,0.925880
468.600,0.925892
468.700,0.925905
468.800,0.925919
468.900,0.925932
469.000,0.925945
469.100,0.925959
469.200,0.925972
469.300,0.925986
469.400,0.926000
469.500,0.926014
469.600,0.926027
469.700,0.926042
469.800,0.926056
469.900,0.926069
470.000,0.926084
470.100,0.926097
470.200,0.926111
470.300,0.926126
470.400,0.926139
470.500,0.926153
470.600,0.926167
470.700,0.926181
470.800,0.926195
470.900,0.926210
471.000,0.926224
471.100,0.926239
471.200,0.926254
471.300,0.926268
471.400,0.926283
471.500,0.926298
471.600,0.926312
471.700,0.926327
471.800,0.926342
471.900,0.926356
472.000,0.926371
472.100,0.926386
472.200,0.926400
472.300,0.926414
472.400,0.926430
472.500,0.926445
472.600,0.926460
472.700,0.926476
472.800,0.926491
472.900,0.926507
473.000,0.926522
473.100,0.926538
473.200,0.926554
473.300,0.926569
473.400,0.926584
473.500,0.926600
473.600,0.926615
473.700,0.926630
473.800,0.926646
473.900,0.926661
474.000,0.926676
474.100,0.926693
474.200,0.926708
474.300,0.926724
474.400,0.926741
474.500,0.926757
474.600,0.926772
474.700,0.926789
474.800,0.926804
474.900,0.926821
475.000,0.926837
475.100,0.926853
475.200,0.926869
475.300,0.926885
475.400,0.926900
475.500,0.926917
475.600,0.926933
475.700,0.926949
475.800,0.926966
475.900,0.926982
476.000,0.926999
476.100,0.927016
476.200,0.927031
476.300,0.927048
476.400,0.927064
476.500,0.927079
476.600,0.927096
476.700,0.927113
476.800,0.927129
476.900,0.927145
477.000,0.927161
477.100,0.927177
477.200,0.927193
477.300,0.927210
477.400,0.927228
477.500,0.927243
477.600,0.927260
477.700,0.927278
477.800,0.927293
477.900,0.927310
478.000,0.927328
478.100,0.927345
478.200,0.927361
478.300,0.927378
478.400,0.927395
478.500,0.927411
478.600,0.927428
478.700,0.927444
478.800,0.927461
478.900,0.927478
479.000,0.927495
479.100,0.927512
479.200,0.927530
479.300,0.927547
479.400,0.927565
479.500,0.927581
479.600,0.927599
479.700,0.927616
479.800,0.927632
479.900,0.927650
480.000,0.927667
480.100,0.927684
480.200,0.927701
480.300,0.927718
480.400,0.927735
480.500,0.927753
480.600,0.927771
480.700,0.927788
480.800,0.927805
480.900,0.927823
481.000,0.927841
481.100,0.927858
481.200,0.927876
481.300,0.927893
481.400,0.927910
481.500,0.927928
481.600,0.927945
481.700,0.927963
481.800,0.927980
481.900,0.927997
482.000,0.928015
482.100,0.928033
482.200,0.928051
482.300,0.928069
482.400,0.928086
482.500,0.928104
482.600,0.928122
482.700,0.928139
482.800,0.928157
482.900,0.928175
483.000,0.928192
483.100,0.928210
483.200,0.928227
483.300,0.928244
483.400,0.928262
483.500,0.928280
483.600,0.928299
483.700,0.928315
483.800,0.928334
483.900,0.928352
484.000,0.928369
484.100,0.928387
484.200,0.928405
484.300,0.928422
484.400,0.928439
484.500,0.928458
484.600,0.928475
484.700,0.928492
484.800,0.928511
484.900,0.928529
485.000,0.928545
485.100,0.928564
485.200,0.928582
485.300,0.928598
485.400,0.928616
485.500,0.928634
485.600,0.928651
485.700,0.928669
485.800,0.928687
485.900,0.928703
486.000,0.928721
486.100,0.928739
486.200,0.928757
486.300,0.928774
486.400,0.928792
486.500,0.928810
486.600,0.928827
486.700,0.928844
486.800,0.928862
486.900,0.928878
487.000,0.928896
487.100,0.928914
487.200,0.928930
487.300,0.928948
487.400,0.928965
487.500,0.928981
487.600,0.928999
487.700,0.929016
487.800,0.929034
487.900,0.929051
488.000,0.929068
488.100,0.929086
488.200,0.929102
488.300,0.929120
488.400,0.929137
488.500,0.929153
488.600,0.929170
488.700,0.929187
488.800,0.929203
488.900,0.929219
489.000,0.929237
489.100,0.929254
489.200,0.929269
489.300,0.929287
489.400,0.929304
489.500,0.929320
489.600,0.929336
489.700,0.929353
489.800,0.929371
489.900,0.929386
490.000,0.929403
490.100,0.929419
490.200,0.929435
490.300,0.929450
490.400,0.929466
490.500,0.929483
490.600,0.929499
490.700,0.929515
490.800,0.929531
490.900,0.929547
491.000,0.929563
491.100,0.929578
491.200,0.929595
491.300,0.929611
491.400,0.929627
491.500,0.929643
491.600,0.929657
491.700,0.929673
491.800,0.929688
491.900,0.929703
492.000,0.929717
492.100,0.929733
492.200,0.929748
492.300,0.929763
492.400,0.929777
492.500,0.929793
492.600,0.929808
492.700,0.929823
492.800,0.929837
492.900,0.929853
493.000,0.929868
493.100,0.929884
493.200,0.929897
493.300,0.929910
493.400,0.929924
493.500,0.929938
493.600,0.929953
493.700,0.929965
493.800,0.929980
493.900,0.929993
494.000,0.930007
494.100,0.930021
494.200,0.930035
494.300,0.930049
494.400,0.930063
494.500,0.930076
494.600,0.930090
494.700,0.930104
494.800,0.930117
494.900,0.930129
495.000,0.930141
495.100,0.930153
495.200,0.930166
495.300,0.930179
495.400,0.930190
495.500,0.930203
495.600,0.930215
495.700,0.930229
495.800,0.930240
495.900,0.930253
496.000,0.930266
496.100,0.930279
496.200,0.930291
496.300,0.930302
496.400,0.930314
496.500,0.930324
496.600,0.930336
496.700,0.930346
496.800,0.930357
496.900,0.930368
497.000,0.930379
497.100,0.930389
497.200,0.930400
497.300,0.930412
497.400,0.930423
497.500,0.930433
497.600,0.930445
497.700,0.930456
497.800,0.930467
497.900,0.930476
498.000,0.930486
498.100,0.930495
498.200,0.930505
498.300,0.930514
498.400,0.930523
498.500,0.930532
498.600,0.930541
498.700,0.930551
498.800,0.930559
498.900,0.930569
499.000,0.930579
499.100,0.930589
499.200,0.930597
499.300,0.930607
499.400,0.930617
499.500,0.930625
499.600,0.930632
499.700,0.930639
499.800,0.930647
499.900,0.930655
500.000,0.930663
500.100,0.930669
500.200,0.930677
500.300,0.930685
500.400,0.930693
500.500,0.930700
500.600,0.930707
500.700,0.930716
500.800,0.930724
500.900,0.930731
501.000,0.930739
501.100,0.930745
501.200,0.930751
501.300,0.930756
501.400,0.930762
501.500,0.930768
501.600,0.930774
501.700,0.930780
501.800,0.930785
501.900,0.930791
502.000,0.930797
502.100,0.930803
502.200,0.930809
502.300,0.930815
502.400,0.930821
502.500,0.930828
502.600,0.930833
502.700,0.930837
502.800,0.930841
502.900,0.930846
503.000,0.930848
503.100,0.930853
503.200,0.930857
503.300,0.930862
503.400,0.930866
503.500,0.930869
503.600,0.930874
503.700,0.930878
503.800,0.930883
503.900,0.930886
504.000,0.930891
504.100,0.930895
504.200,0.930900
504.300,0.930901
504.400,0.930904
504.500,0.930906
504.600,0.930909
504.700,0.930911
504.800,0.930913
504.900,0.930916
505.000,0.930918
505.100,0.930921
505.200,0.930923
505.300,0.930926
505.400,0.930928
505.500,0.930931
505.600,0.930933
505.700,0.930936
505.800,0.930939
505.900,0.930940
506.000,0.930940
506.100,0.930941
506.200,0.930941
506.300,0.930942
506.400,0.930942
506.500,0.930943
506.600,0.930945
506.700,0.930945
506.800,0.930946
506.900,0.930947
507.000,0.930948
507.100,0.930948
507.200,0.930949
507.300,0.930950
507.400,0.930951
507.500,0.930950
507.600,0.930948
507.700,0.930948
507.800,0.930947
507.900,0.930946
508.000,0.930945
508.100,0.930945
508.200,0.930943
508.300,0.930943
508.400,0.930942
508.500,0.930941
508.600,0.930941
508.700,0.930940
508.800,0.930939
508.900,0.930939
509.000,0.930937
509.100,0.930935
509.200,0.930933
509.300,0.930930
509.400,0.930928
509.500,0.930926
509.600,0.930924
509.700,0.930922
509.800,0.930920
509.900,0.930917
510.000,0.930915
510.100,0.930912
510.200,0.930910
510.300,0.930909
510.400,0.930906
510.500,0.930904
510.600,0.930902
510.700,0.930897
510.800,0.930894
510.900,0.930891
511.000,0.930887
511.100,0.930884
511.200,0.930879
511.300,0.930876
511.400,0.930873
511.500,0.930869
511.600,0.930866
511.700,0.930862
511.800,0.930859
511.900,0.930855
512.000,0.930852
512.100,0.930848
512.200,0.930844
512.300,0.930840
512.400,0.930834
512.500,0.930830
512.600,0.930825
512.700,0.930821
512.800,0.930816
512.900,0.930811
513.000,0.930806
513.100,0.930802
513.200,0.930797
513.300,0.930793
513.400,0.930788
513.500,0.930783
513.600,0.930779
513.700,0.930774
513.800,0.930768
513.900,0.930763
514.000,0.930757
514.100,0.930752
514.200,0.930746
514.300,0.930740
514.400,0.930735
514.500,0.930730
514.600,0.930723
514.700,0.930718
514.800,0.930713
514.900,0.930706
515.000,0.930701
515.100,0.930694
515.200,0.930689
515.300,0.930684
515.400,0.930677
515.500,0.930671
515.600,0.930665
515.700,0.930657
515.800,0.930651
515.900,0.930645
516.000,0.930638
516.100,0.930632
516.200,0.930626
516.300,0.930619
516.400,0.930612
516.500,0.930605
516.600,0.930599
516.700,0.930592
516.800,0.930585
516.900,0.930578
517.000,0.930572
517.100,0.930564
517.200,0.930557
517.300,0.930550
517.400,0.930543
