Wavelength,Reflectance
400.000,0.926796
400.100,0.926781
400.200,0.926764
400.300,0.926749
400.400,0.926731
400.500,0.926716
400.600,0.926701
400.700,0.926686
400.800,0.926669
400.900,0.926654
401.000,0.926639
401.100,0.926624
401.200,0.926607
401.300,0.926591
401.400,0.926577
401.500,0.926562
401.600,0.926545
401.700,0.926530
401.800,0.926515
401.900,0.926501
402.000,0.926484
402.100,0.926470
402.200,0.926453
402.300,0.926438
402.400,0.926421
402.500,0.926405
402.600,0.926390
402.700,0.926373
402.800,0.926356
402.900,0.926343
403.000,0.926326
403.100,0.926310
403.200,0.926295
403.300,0.926280
403.400,0.926263
403.500,0.926249
403.600,0.926233
403.700,0.926219
403.800,0.926203
403.900,0.926187
404.000,0.926172
404.100,0.926157
404.200,0.926140
404.300,0.926126
404.400,0.926110
404.500,0.926095
404.600,0.926081
404.700,0.926066
404.800,0.926050
404.900,0.926037
405.000,0.926021
405.100,0.926006
405.200,0.925992
405.300,0.925976
405.400,0.925961
405.500,0.925947
405.600,0.925932
405.700,0.925917
405.800,0.925904
405.900,0.925889
406.000,0.925874
406.100,0.925861
406.200,0.925847
406.300,0.925831
406.400,0.925818
406.500,0.925802
406.600,0.925788
406.700,0.925775
406.800,0.925761
406.900,0.925747
407.000,0.925733
407.100,0.925718
407.200,0.925706
407.300,0.925691
407.400,0.925677
407.500,0.925664
407.600,0.925650
407.700,0.925636
407.800,0.925624
407.900,0.925610
408.000,0.925596
408.100,0.925584
408.200,0.925570
408.300,0.925556
408.400,0.925544
408.500,0.925530
408.600,0.925516
408.700,0.925504
408.800,0.925489
408.900,0.925476
409.000,0.925464
409.100,0.925451
409.200,0.925438
409.300,0.925427
409.400,0.925413
409.500,0.925400
409.600,0.925388
409.700,0.925375
409.800,0.925362
409.900,0.925351
410.000,0.925337
410.100,0.925327
410.200,0.925313
410.300,0.925300
410.400,0.925289
410.500,0.925276
410.600,0.925263
410.700,0.925253
410.800,0.925240
410.900,0.925228
411.000,0.925217
411.100,0.925205
411.200,0.925192
411.300,0.925182
411.400,0.925169
411.500,0.925157
411.600,0.925147
411.700,0.925134
411.800,0.925122
411.900,0.925111
412.000,0.925099
412.100,0.925087
412.200,0.925077
412.300,0.925065
412.400,0.925054
412.500,0.925044
412.600,0.925033
412.700,0.925021
412.800,0.925011
412.900,0.924999
413.000,0.924988
413.100,0.924978
413.200,0.924967
413.300,0.924957
413.400,0.924946
413.500,0.924934
413.600,0.924924
413.700,0.924913
413.800,0.924902
413.900,0.924893
414.000,0.924883
414.100,0.924872
414.200,0.924863
414.300,0.924852
414.400,0.924842
414.500,0.924833
414.600,0.924822
414.700,0.924811
414.800,0.924802
414.900,0.924792
415.000,0.924781
415.100,0.924772
415.200,0.924761
415.300,0.924751
415.400,0.924743
415.500,0.924733
415.600,0.924724
415.700,0.924714
415.800,0.924704
415.900,0.924696
416.000,0.924686
416.100,0.924677
416.200,0.924669
416.300,0.924660
416.400,0.924650
416.500,0.924642
416.600,0.924632
416.700,0.924624
416.800,0.924614
416.900,0.924604
417.000,0.924597
417.100,0.924588
417.200,0.924579
417.300,0.924571
417.400,0.924562
417.500,0.924553
417.600,0.924546
417.700,0.924537
417.800,0.924530
417.900,0.924520
418.000,0.924511
418.100,0.924504
418.200,0.924495
418.300,0.924486
418.400,0.924479
418.500,0.924470
418.600,0.924463
418.700,0.924457
418.800,0.924448
418.900,0.924440
419.000,0.924434
419.100,0.924426
419.200,0.924419
419.300,0.924411
419.400,0.924403
419.500,0.924396
419.600,0.924388
419.700,0.924380
419.800,0.924373
419.900,0.924365
420.000,0.924357
420.100,0.924351
420.200,0.924344
420.300,0.924339
420.400,0.924332
420.500,0.924325
420.600,0.924319
420.700,0.924312
420.800,0.924304
420.900,0.924298
421.000,0.924291
421.100,0.924284
421.200,0.924278
421.300,0.924271
421.400,0.924265
421.500,0.924258
421.600,0.924250
421.700,0.924247
421.800,0.924240
421.900,0.924233
422.000,0.924229
422.100,0.924222
422.200,0.924215
422.300,0.924211
422.400,0.924204
422.500,0.924199
422.600,0.924193
422.700,0.924186
422.800,0.924181
422.900,0.924175
423.000,0.924170
423.100,0.924165
423.200,0.924158
423.300,0.924153
423.400,0.924149
423.500,0.924142
423.600,0.924139
423.700,0.924133
423.800,0.924127
423.900,0.924123
424.000,0.924117
424.100,0.924113
424.200,0.924109
424.300,0.924103
424.400,0.924097
424.500,0.924093
424.600,0.924087
424.700,0.924082
424.800,0.924078
424.900,0.924073
425.000,0.924070
425.100,0.924065
425.200,0.924061
425.300,0.924058
425.400,0.924053
425.500,0.924048
425.600,0.924045
425.700,0.924040
425.800,0.924035
425.900,0.924032
426.000,0.924027
426.100,0.924023
426.200,0.924020
426.300,0.924015
426.400,0.924012
426.500,0.924008
426.600,0.924004
426.700,0.924001
426.800,0.923997
426.900,0.923993
427.000,0.923990
427.100,0.923987
427.200,0.923985
427.300,0.923981
427.400,0.923976
427.500,0.923974
427.600,0.923970
427.700,0.923965
427.800,0.923961
427.900,0.923957
428.000,0.923954
428.100,0.923951
428.200,0.923948
428.300,0.923944
428.400,0.923940
428.500,0.923937
428.600,0.923933
428.700,0.923930
428.800,0.923927
428.900,0.923924
429.000,0.923920
429.100,0.923917
429.200,0.923913
429.300,0.923909
429.400,0.923906
429.500,0.923903
429.600,0.923901
429.700,0.923898
429.800,0.923895
429.900,0.923892
430.000,0.923890
430.100,0.923887
430.200,0.923884
430.300,0.923881
430.400,0.923880
430.500,0.923877
430.600,0.923876
430.700,0.923873
430.800,0.923870
430.900,0.923868
431.000,0.923865
431.100,0.923863
431.200,0.923861
431.300,0.923859
431.400,0.923857
431.500,0.923855
431.600,0.923853
431.700,0.923851
431.800,0.923849
431.900,0.923848
432.000,0.923846
432.100,0.923844
432.200,0.923842
432.300,0.923839
432.400,0.923837
432.500,0.923836
432.600,0.923835
432.700,0.923832
432.800,0.923831
432.900,0.923829
433.000,0.923828
433.100,0.923827
433.200,0.923826
433.300,0.923826
433.400,0.923824
433.500,0.923823
433.600,0.923821
433.700,0.923820
433.800,0.923819
433.900,0.923818
434.000,0.923817
434.100,0.923815
434.200,0.923814
434.300,0.923813
434.400,0.923812
434.500,0.923812
434.600,0.923812
434.700,0.923811
434.800,0.923811
434.900,0.923810
435.000,0.923809
435.100,0.923809
435.200,0.923809
435.300,0.923808
435.400,0.923808
435.500,0.923807
435.600,0.923806
435.700,0.923806
435.800,0.923806
435.900,0.923806
436.000,0.923805
436.100,0.923805
436.200,0.923805
436.300,0.923806
436.400,0.923807
436.500,0.923807
436.600,0.923808
436.700,0.923808
436.800,0.923808
436.900,0.923809
437.000,0.923809
437.100,0.923809
437.200,0.923809
437.300,0.923809
437.400,0.923809
437.500,0.923810
437.600,0.923811
437.700,0.923812
437.800,0.923813
437.900,0.923813
438.000,0.923814
438.100,0.923815
438.200,0.923816
438.300,0.923817
438.400,0.923817
438.500,0.923818
438.600,0.923818
438.700,0.923820
438.800,0.923820
438.900,0.923821
439.000,0.923822
439.100,0.923823
439.200,0.923824
439.300,0.923826
439.400,0.923828
439.500,0.923829
439.600,0.923830
439.700,0.923831
439.800,0.923834
439.900,0.923835
440.000,0.923836
440.100,0.923838
440.200,0.923839
440.300,0.923841
440.400,0.923842
440.500,0.923844
440.600,0.923847
440.700,0.923848
440.800,0.923851
440.900,0.923853
441.000,0.923855
441.100,0.923857
441.200,0.923859
441.300,0.923861
441.400,0.923864
441.500,0.923866
441.600,0.923868
441.700,0.923869
441.800,0.923871
441.900,0.923874
442.000,0.923876
442.100,0.923878
442.200,0.923880
442.300,0.923882
442.400,0.923885
442.500,0.923888
442.600,0.923890
442.700,0.923895
442.800,0.923897
442.900,0.923900
443.000,0.923903
443.100,0.923906
443.200,0.923908
443.300,0.923911
443.400,0.923914
443.500,0.923916
443.600,0.923919
443.700,0.923921
443.800,0.923924
443.900,0.923927
444.000,0.923930
444.100,0.923934
444.200,0.923937
444.300,0.923941
444.400,0.923944
444.500,0.923947
444.600,0.923950
444.700,0.923953
444.800,0.923959
444.900,0.923962
445.000,0.923965
445.100,0.923968
445.200,0.923972
445.300,0.923975
445.400,0.923978
445.500,0.923982
445.600,0.923986
445.700,0.923990
445.800,0.923994
445.900,0.923998
446.000,0.924001
446.100,0.924006
446.200,0.924009
446.300,0.924013
446.400,0.924017
446.500,0.924020
446.600,0.924025
446.700,0.924029
446.800,0.924032
446.900,0.924036
447.000,0.924042
447.100,0.924046
447.200,0.924051
447.300,0.924055
447.400,0.924059
447.500,0.924064
447.600,0.924069
447.700,0.924073
447.800,0.924077
447.900,0.924083
448.000,0.924087
448.100,0.924091
448.200,0.924095
448.300,0.924100
448.400,0.924104
448.500,0.924109
448.600,0.924113
448.700,0.924118
448.800,0.924124
448.900,0.924129
449.000,0.924133
449.100,0.924140
449.200,0.924146
449.300,0.924151
449.400,0.924156
449.500,0.924160
449.600,0.924166
449.700,0.924171
449.800,0.924176
449.900,0.924181
450.000,0.924186
450.100,0.924191
450.200,0.924196
450.300,0.924202
450.400,0.924208
450.500,0.924214
450.600,0.924219
450.700,0.924225
450.800,0.924231
450.900,0.924236
451.000,0.924241
451.100,0.924247
451.200,0.924255
451.300,0.924260
451.400,0.924266
451.500,0.924271
451.600,0.924277
451.700,0.924283
451.800,0.924289
451.900,0.924295
452.000,0.924302
452.100,0.924308
452.200,0.924314
452.300,0.924320
452.400,0.924327
452.500,0.924333
452.600,0.924339
452.700,0.924345
452.800,0.924353
452.900,0.924358
453.000,0.924363
453.100,0.924369
453.200,0.924376
453.300,0.924382
453.400,0.924388
453.500,0.924395
453.600,0.924403
453.700,0.924409
453.800,0.924416
453.900,0.924423
454.000,0.924430
454.100,0.924437
454.200,0.924444
454.300,0.924451
454.400,0.924458
454.500,0.924463
454.600,0.924469
454.700,0.924477
454.800,0.924484
454.900,0.924491
455.000,0.924498
455.100,0.924506
455.200,0.924513
455.300,0.924521
455.400,0.924528
455.500,0.924537
455.600,0.924544
455.700,0.924551
455.800,0.924559
455.900,0.924567
456.000,0.924573
456.100,0.924580
456.200,0.924588
456.300,0.924595
456.400,0.924603
456.500,0.924610
456.600,0.924619
456.700,0.924627
456.800,0.924635
456.900,0.924643
457.000,0.924652
457.100,0.924660
457.200,0.924668
457.300,0.924677
457.400,0.924685
457.500,0.924691
457.600,0.924699
457.700,0.924708
457.800,0.924716
457.900,0.924724
458.000,0.924733
458.100,0.924741
458.200,0.924749
458.300,0.924758
458.400,0.924768
458.500,0.924776
458.600,0.924785
458.700,0.924795
458.800,0.924803
458.900,0.924811
459.000,0.924819
459.100,0.924829
459.200,0.924837
459.300,0.924846
459.400,0.924855
459.500,0.924864
459.600,0.924873
459.700,0.924881
459.800,0.924891
459.900,0.924901
460.000,0.924910
460.100,0.924921
460.200,0.924930
460.300,0.924939
460.400,0.924947
460.500,0.924957
460.600,0.924967
460.700,0.924976
460.800,0.924986
460.900,0.924995
461.000,0.925005
461.100,0.925014
461.200,0.925024
461.300,0.925034
461.400,0.925044
461.500,0.925055
461.600,0.925065
461.700,0.925075
461.800,0.925086
461.900,0.925095
462.000,0.925105
462.100,0.925115
462.200,0.925126
462.300,0.925136
462.400,0.925146
462.500,0.925157
462.600,0.925167
462.700,0.925177
462.800,0.925188
462.900,0.925198
463.000,0.925209
463.100,0.925221
463.200,0.925232
463.300,0.925242
463.400,0.925252
463.500,0.925263
463.600,0.925274
463.700,0.925285
463.800,0.925297
463.900,0.925307
464.000,0.925318
464.100,0.925330
464.200,0.925341
464.300,0.925351
464.400,0.925363
464.500,0.925374
464.600,0.925385
464.700,0.925397
464.800,0.925409
464.900,0.925421
465.000,0.925432
465.100,0.925444
465.200,0.925456
465.300,0.925467
465.400,0.925480
465.500,0.925491
465.600,0.925502
465.700,0.925515
465.800,0.925526
465.900,0.925538
466.000,0.925550
466.100,0.925562
466.200,0.925574
466.300,0.925587
466.400,0.925599
466.500,0.925612
466.600,0.925624
466.700,0.925637
466.800,0.925649
466.900,0.925661
467.000,0.925674
467.100,0.925688
467.200,0.925700
467.300,0.925713
467.400,0.925726
467.500,0.925738
467.600,0.925751
467.700,0.925763
467.800,0.925776
467.900,0.925790
468.000,0.925803
468.100,0.925816
468.200,0.925830
468.300,0.925843
468.400,0.925856
468.500,0.925870
468.600,0.925882
468.700,0.925895
468.800,0.925909
468.900,0.925922
469.000,0.925935
469.100,0.925949
469.200,0.925962
469.300,0.925976
469.400,0.925990
469.500,0.926004
469.600,0.926018
469.700,0.926032
469.800,0.926046
469.900,0.926059
470.000,0.926074
470.100,0.926088
470.200,0.926101
470.300,0.926116
470.400,0.926129
470.500,0.926143
470.600,0.926158
470.700,0.926171
470.800,0.926185
470.900,0.926200
471.000,0.926214
471.100,0.926229
471.200,0.926244
471.300,0.926258
471.400,0.926273
471.500,0.926288
471.600,0.926302
471.700,0.926317
471.800,0.926332
471.900,0.926346
472.000,0.926361
472.100,0.926376
472.200,0.926390
472.300,0.926404
472.400,0.926420
472.500,0.926435
472.600,0.926450
472.700,0.926466
472.800,0.926481
472.900,0.926497
473.000,0.926512
473.100,0.926529
473.200,0.926544
473.300,0.926560
473.400,0.926575
473.500,0.926591
473.600,0.926605
473.700,0.926620
473.800,0.926636
473.900,0.926651
474.000,0.926666
474.100,0.926683
474.200,0.926699
474.300,0.926715
474.400,0.926731
474.500,0.926747
474.600,0.926763
474.700,0.926779
474.800,0.926795
474.900,0.926811
475.000,0.926827
475.100,0.926843
475.200,0.926859
475.300,0.926875
475.400,0.926891
475.500,0.926907
475.600,0.926923
475.700,0.926940
475.800,0.926957
475.900,0.926973
476.000,0.926989
476.100,0.927006
476.200,0.927022
476.300,0.927039
476.400,0.927055
476.500,0.927070
476.600,0.927087
476.700,0.927103
476.800,0.927120
476.900,0.927135
477.000,0.927151
477.100,0.927168
477.200,0.927184
477.300,0.927201
477.400,0.927219
477.500,0.927234
477.600,0.927251
477.700,0.927268
477.800,0.927284
477.900,0.927301
478.000,0.927318
478.100,0.927335
478.200,0.927351
478.300,0.927368
478.400,0.927385
478.500,0.927401
478.600,0.927418
478.700,0.927435
478.800,0.927451
478.900,0.927469
479.000,0.927486
479.100,0.927503
479.200,0.927520
479.300,0.927538
479.400,0.927556
479.500,0.927572
479.600,0.927590
479.700,0.927607
479.800,0.927623
479.900,0.927641
480.000,0.927658
480.100,0.927675
480.200,0.927692
480.300,0.927710
480.400,0.927726
480.500,0.927744
480.600,0.927762
480.700,0.927779
480.800,0.927796
480.900,0.927814
481.000,0.927832
481.100,0.927849
481.200,0.927867
481.300,0.927885
481.400,0.927901
481.500,0.927919
481.600,0.927937
481.700,0.927954
481.800,0.927972
481.900,0.927989
482.000,0.928006
482.100,0.928024
482.200,0.928042
482.300,0.928060
482.400,0.928077
482.500,0.928096
482.600,0.928113
482.700,0.928131
482.800,0.928149
482.900,0.928166
483.000,0.928183
483.100,0.928201
483.200,0.928219
483.300,0.928236
483.400,0.928254
483.500,0.928272
483.600,0.928290
483.700,0.928307
483.800,0.928325
483.900,0.928343
484.000,0.928361
484.100,0.928378
484.200,0.928397
484.300,0.928414
484.400,0.928431
484.500,0.928450
484.600,0.928467
484.700,0.928484
484.800,0.928503
484.900,0.928521
485.000,0.928537
485.100,0.928556
485.200,0.928574
485.300,0.928591
485.400,0.928609
485.500,0.928626
485.600,0.928643
485.700,0.928661
485.800,0.928679
485.900,0.928696
486.000,0.928714
486.100,0.928732
486.200,0.928750
486.300,0.928767
486.400,0.928785
486.500,0.928802
486.600,0.928819
486.700,0.928837
486.800,0.928855
486.900,0.928871
487.000,0.928888
487.100,0.928907
487.200,0.928923
487.300,0.928941
487.400,0.928958
487.500,0.928974
487.600,0.928992
487.700,0.929010
487.800,0.929028
487.900,0.929044
488.000,0.929061
488.100,0.929080
488.200,0.929096
488.300,0.929113
488.400,0.929130
488.500,0.929147
488.600,0.929163
488.700,0.929180
488.800,0.929197
488.900,0.929213
489.000,0.929231
489.100,0.929248
489.200,0.929263
489.300,0.929281
489.400,0.929298
489.500,0.929314
489.600,0.929331
489.700,0.929348
489.800,0.929365
489.900,0.929381
490.000,0.929397
490.100,0.929413
490.200,0.929429
490.300,0.929445
490.400,0.929461
490.500,0.929477
490.600,0.929494
490.700,0.929509
490.800,0.929525
490.900,0.929541
491.000,0.929558
491.100,0.929573
491.200,0.929590
491.300,0.929606
491.400,0.929622
491.500,0.929639
491.600,0.929653
491.700,0.929668
491.800,0.929683
491.900,0.929699
492.000,0.929713
492.100,0.929728
492.200,0.929744
492.300,0.929759
492.400,0.929773
492.500,0.929788
492.600,0.929804
492.700,0.929819
492.800,0.929833
492.900,0.929849
493.000,0.929865
493.100,0.929880
493.200,0.929894
493.300,0.929906
493.400,0.929921
493.500,0.929935
493.600,0.929949
493.700,0.929962
493.800,0.929976
493.900,0.929990
494.000,0.930004
494.100,0.930018
494.200,0.930032
494.300,0.930046
494.400,0.930060
494.500,0.930074
494.600,0.930088
494.700,0.930101
494.800,0.930114
494.900,0.930127
495.000,0.930138
495.100,0.930151
495.200,0.930164
495.300,0.930177
495.400,0.930188
495.500,0.930201
495.600,0.930214
495.700,0.930227
495.800,0.930239
495.900,0.930252
496.000,0.930265
496.100,0.930277
496.200,0.930290
496.300,0.930301
496.400,0.930313
496.500,0.930323
496.600,0.930335
496.700,0.930345
496.800,0.930356
496.900,0.930367
497.000,0.930378
497.100,0.930389
497.200,0.930400
497.300,0.930412
497.400,0.930423
497.500,0.930433
497.600,0.930445
497.700,0.930456
497.800,0.930468
497.900,0.930476
498.000,0.930486
498.100,0.930495
498.200,0.930505
498.300,0.930515
498.400,0.930523
498.500,0.930533
498.600,0.930542
498.700,0.930552
498.800,0.930561
498.900,0.930571
499.000,0.930580
499.100,0.930590
499.200,0.930599
499.300,0.930609
499.400,0.930619
499.500,0.930627
499.600,0.930634
499.700,0.930641
499.800,0.930649
499.900,0.930657
500.000,0.930665
500.100,0.930672
500.200,0.930680
500.300,0.930688
500.400,0.930696
500.500,0.930703
500.600,0.930711
500.700,0.930719
500.800,0.930727
500.900,0.930734
501.000,0.930743
501.100,0.930749
501.200,0.930755
501.300,0.930760
501.400,0.930766
501.500,0.930772
501.600,0.930778
501.700,0.930784
501.800,0.930790
501.900,0.930796
502.000,0.930802
502.100,0.930809
502.200,0.930814
502.300,0.930820
502.400,0.930827
502.500,0.930833
502.600,0.930839
502.700,0.930843
502.800,0.930847
502.900,0.930852
503.000,0.930855
503.100,0.930859
503.200,0.930864
503.300,0.930868
503.400,0.930873
503.500,0.930876
503.600,0.930881
503.700,0.930885
503.800,0.930890
503.900,0.930894
504.000,0.930899
504.100,0.930903
504.200,0.930908
504.300,0.930909
504.400,0.930912
504.500,0.930915
504.600,0.930918
504.700,0.930919
504.800,0.930922
504.900,0.930925
505.000,0.930927
505.100,0.930930
505.200,0.930932
505.300,0.930935
505.400,0.930938
505.500,0.930941
505.600,0.930943
505.700,0.930946
505.800,0.930949
505.900,0.930950
506.000,0.930950
506.100,0.930951
506.200,0.930952
506.300,0.930953
506.400,0.930954
506.500,0.930955
506.600,0.930956
506.700,0.930957
506.800,0.930958
506.900,0.930958
507.000,0.930960
507.100,0.930961
507.200,0.930962
507.300,0.930962
507.400,0.930963
507.500,0.930963
507.600,0.930961
507.700,0.930961
507.800,0.930961
507.900,0.930959
508.000,0.930959
508.100,0.930958
508.200,0.930957
508.300,0.930957
508.400,0.930957
508.500,0.930956
508.600,0.930955
508.700,0.930954
508.800,0.930954
508.900,0.930954
509.000,0.930952
509.100,0.930951
509.200,0.930948
509.300,0.930946
509.400,0.930944
509.500,0.930942
509.600,0.930940
509.700,0.930938
509.800,0.930936
509.900,0.930933
510.000,0.930932
510.100,0.930929
510.200,0.930927
510.300,0.930926
510.400,0.930923
510.500,0.930921
510.600,0.930919
510.700,0.930915
510.800,0.930912
510.900,0.930909
511.000,0.930905
511.100,0.930902
511.200,0.930898
511.300,0.930895
511.400,0.930892
511.500,0.930888
511.600,0.930885
511.700,0.930882
511.800,0.930878
511.900,0.930875
512.000,0.930872
512.100,0.930868
512.200,0.930864
512.300,0.930860
512.400,0.930855
512.500,0.930851
512.600,0.930846
512.700,0.930842
512.800,0.930837
512.900,0.930832
513.000,0.930828
513.100,0.930824
513.200,0.930819
513.300,0.930814
513.400,0.930810
513.500,0.930805
513.600,0.930801
513.700,0.930797
513.800,0.930791
513.900,0.930786
514.000,0.930780
514.100,0.930775
514.200,0.930769
514.300,0.930763
514.400,0.930758
514.500,0.930753
514.600,0.930747
514.700,0.930742
514.800,0.930737
514.900,0.930731
515.000,0.930725
515.100,0.930719
515.200,0.930713
515.300,0.930709
515.400,0.930702
515.500,0.930696
515.600,0.930690
515.700,0.930683
515.800,0.930677
515.900,0.930671
516.000,0.930664
516.100,0.930658
516.200,0.930652
516.300,0.930645
516.400,0.930639
516.500,0.930631
516.600,0.930625
516.700,0.930619
516.800,0.930612
516.900,0.930605
517.000,0.930599
517.100,0.930591
517.200,0.930585
517.300,0.930578
517.400,0.930571
