Wavelength,Reflectance
400.000,0.815386
400.100,0.815356
400.200,0.815329
400.300,0.815299
400.400,0.815273
400.500,0.815243
400.600,0.815216
400.700,0.815186
400.800,0.815157
400.900,0.815130
401.000,0.815101
401.100,0.815076
401.200,0.815050
401.300,0.815026
401.400,0.814999
401.500,0.814972
401.600,0.814949
401.700,0.814922
401.800,0.814898
401.900,0.814871
402.000,0.814848
402.100,0.814821
402.200,0.814798
402.300,0.814771
402.400,0.814747
402.500,0.814721
402.600,0.814698
402.700,0.814674
402.800,0.814653
402.900,0.814630
403.000,0.814609
403.100,0.814585
403.200,0.814564
403.300,0.814540
403.400,0.814520
403.500,0.814496
403.600,0.814475
403.700,0.814451
403.800,0.814431
403.900,0.814407
404.000,0.814386
404.100,0.814363
404.200,0.814343
404.300,0.814322
404.400,0.814304
404.500,0.814283
404.600,0.814264
404.700,0.814244
404.800,0.814226
404.900,0.814205
405.000,0.814187
405.100,0.814166
405.200,0.814148
405.300,0.814130
405.400,0.814109
405.500,0.814091
405.600,0.814071
405.700,0.814053
405.800,0.814033
405.900,0.814017
406.000,0.813999
406.100,0.813983
406.200,0.813965
406.300,0.813949
406.400,0.813931
406.500,0.813915
406.600,0.813897
406.700,0.813882
406.800,0.813863
406.900,0.813848
407.000,0.813830
407.100,0.813814
407.200,0.813796
407.300,0.813780
407.400,0.813764
407.500,0.813750
407.600,0.813734
407.700,0.813721
407.800,0.813705
407.900,0.813692
408.000,0.813676
408.100,0.813662
408.200,0.813647
408.300,0.813633
408.400,0.813618
408.500,0.813604
408.600,0.813591
408.700,0.813576
408.800,0.813563
408.900,0.813547
409.000,0.813535
409.100,0.813521
409.200,0.813510
409.300,0.813496
409.400,0.813485
409.500,0.813471
409.600,0.813460
409.700,0.813447
409.800,0.813435
409.900,0.813422
410.000,0.813411
410.100,0.813397
410.200,0.813386
410.300,0.813372
410.400,0.813362
410.500,0.813348
410.600,0.813338
410.700,0.813326
410.800,0.813317
410.900,0.813306
411.000,0.813296
411.100,0.813285
411.200,0.813276
411.300,0.813263
411.400,0.813254
411.500,0.813243
411.600,0.813233
411.700,0.813224
411.800,0.813213
411.900,0.813204
412.000,0.813192
412.100,0.813183
412.200,0.813173
412.300,0.813165
412.400,0.813155
412.500,0.813148
412.600,0.813137
412.700,0.813130
412.800,0.813120
412.900,0.813112
413.000,0.813102
413.100,0.813095
413.200,0.813085
413.300,0.813077
413.400,0.813068
413.500,0.813060
413.600,0.813050
413.700,0.813043
413.800,0.813034
413.900,0.813028
414.000,0.813020
414.100,0.813014
414.200,0.813005
414.300,0.812999
414.400,0.812991
414.500,0.812985
414.600,0.812976
414.700,0.812971
414.800,0.812962
414.900,0.812956
415.000,0.812950
415.100,0.812942
415.200,0.812936
415.300,0.812931
415.400,0.812923
415.500,0.812919
415.600,0.812914
415.700,0.812910
415.800,0.812902
415.900,0.812898
416.000,0.812894
416.100,0.812886
416.200,0.812881
416.300,0.812877
416.400,0.812870
416.500,0.812865
416.600,0.812861
416.700,0.812854
416.800,0.812849
416.900,0.812845
417.000,0.812842
417.100,0.812835
417.200,0.812832
417.300,0.812829
417.400,0.812823
417.500,0.812819
417.600,0.812816
417.700,0.812809
417.800,0.812806
417.900,0.812803
418.000,0.812797
418.100,0.812793
418.200,0.812790
418.300,0.812786
418.400,0.812780
418.500,0.812777
418.600,0.812775
418.700,0.812770
418.800,0.812768
418.900,0.812766
419.000,0.812761
419.100,0.812758
419.200,0.812756
419.300,0.812751
419.400,0.812748
419.500,0.812746
419.600,0.812743
419.700,0.812739
419.800,0.812736
419.900,0.812734
420.000,0.812728
420.100,0.812727
420.200,0.812725
420.300,0.812721
420.400,0.812720
420.500,0.812718
420.600,0.812714
420.700,0.812713
420.800,0.812711
420.900,0.812709
421.000,0.812705
421.100,0.812703
421.200,0.812702
421.300,0.812697
421.400,0.812695
421.500,0.812694
421.600,0.812690
421.700,0.812689
421.800,0.812688
421.900,0.812687
422.000,0.812684
422.100,0.812683
422.200,0.812682
422.300,0.812679
422.400,0.812678
422.500,0.812677
422.600,0.812673
422.700,0.812672
422.800,0.812671
422.900,0.812668
423.000,0.812667
423.100,0.812666
423.200,0.812665
423.300,0.812662
423.400,0.812662
423.500,0.812662
423.600,0.812659
423.700,0.812658
423.800,0.812658
423.900,0.812655
424.000,0.812655
424.100,0.812655
424.200,0.812651
424.300,0.812651
424.400,0.812650
424.500,0.812650
424.600,0.812647
424.700,0.812646
424.800,0.812646
424.900,0.812644
425.000,0.812644
425.100,0.812644
425.200,0.812642
425.300,0.812642
425.400,0.812642
425.500,0.812639
425.600,0.812640
425.700,0.812639
425.800,0.812640
425.900,0.812637
426.000,0.812637
426.100,0.812637
426.200,0.812634
426.300,0.812634
426.400,0.812634
426.500,0.812632
426.600,0.812633
426.700,0.812633
426.800,0.812631
426.900,0.812631
427.000,0.812632
427.100,0.812633
427.200,0.812630
427.300,0.812630
427.400,0.812631
427.500,0.812629
427.600,0.812629
427.700,0.812629
427.800,0.812629
427.900,0.812630
428.000,0.812630
428.100,0.812631
428.200,0.812629
428.300,0.812630
428.400,0.812630
428.500,0.812631
428.600,0.812632
428.700,0.812632
428.800,0.812633
428.900,0.812634
429.000,0.812634
429.100,0.812635
429.200,0.812635
429.300,0.812636
429.400,0.812633
429.500,0.812633
429.600,0.812635
429.700,0.812636
429.800,0.812636
429.900,0.812637
430.000,0.812638
430.100,0.812638
430.200,0.812640
430.300,0.812640
430.400,0.812641
430.500,0.812642
430.600,0.812640
430.700,0.812641
430.800,0.812641
430.900,0.812641
431.000,0.812642
431.100,0.812643
431.200,0.812644
431.300,0.812645
431.400,0.812645
431.500,0.812646
431.600,0.812647
431.700,0.812648
431.800,0.812646
431.900,0.812647
432.000,0.812648
432.100,0.812649
432.200,0.812649
432.300,0.812650
432.400,0.812650
432.500,0.812651
432.600,0.812652
432.700,0.812652
432.800,0.812653
432.900,0.812654
433.000,0.812652
433.100,0.812653
433.200,0.812654
433.300,0.812655
433.400,0.812656
433.500,0.812656
433.600,0.812657
433.700,0.812657
433.800,0.812658
433.900,0.812659
434.000,0.812659
434.100,0.812660
434.200,0.812657
434.300,0.812658
434.400,0.812659
434.500,0.812660
434.600,0.812661
434.700,0.812661
434.800,0.812662
434.900,0.812663
435.000,0.812663
435.100,0.812664
435.200,0.812665
435.300,0.812666
435.400,0.812663
435.500,0.812664
435.600,0.812664
435.700,0.812665
435.800,0.812666
435.900,0.812666
436.000,0.812667
436.100,0.812667
436.200,0.812668
436.300,0.812668
436.400,0.812669
436.500,0.812670
436.600,0.812668
436.700,0.812668
436.800,0.812669
436.900,0.812669
437.000,0.812670
437.100,0.812670
437.200,0.812671
437.300,0.812671
437.400,0.812671
437.500,0.812671
437.600,0.812672
437.700,0.812672
437.800,0.812670
437.900,0.812671
438.000,0.812671
438.100,0.812671
438.200,0.812672
438.300,0.812672
438.400,0.812672
438.500,0.812673
438.600,0.812673
438.700,0.812674
438.800,0.812673
438.900,0.812673
439.000,0.812671
439.100,0.812671
439.200,0.812671
439.300,0.812672
439.400,0.812672
439.500,0.812672
439.600,0.812672
439.700,0.812672
439.800,0.812673
439.900,0.812670
440.000,0.812670
440.100,0.812670
440.200,0.812670
440.300,0.812671
440.400,0.812670
440.500,0.812670
440.600,0.812668
440.700,0.812668
440.800,0.812668
440.900,0.812668
441.000,0.812668
441.100,0.812668
441.200,0.812668
441.300,0.812665
441.400,0.812665
441.500,0.812665
441.600,0.812665
441.700,0.812664
441.800,0.812664
441.900,0.812664
442.000,0.812661
442.100,0.812661
442.200,0.812660
442.300,0.812660
442.400,0.812660
442.500,0.812660
442.600,0.812659
442.700,0.812656
442.800,0.812656
442.900,0.812656
443.000,0.812656
443.100,0.812655
443.200,0.812655
443.300,0.812655
443.400,0.812652
443.500,0.812651
443.600,0.812650
443.700,0.812650
443.800,0.812650
443.900,0.812649
444.000,0.812648
444.100,0.812645
444.200,0.812645
444.300,0.812645
444.400,0.812644
444.500,0.812643
444.600,0.812642
444.700,0.812642
444.800,0.812639
444.900,0.812638
445.000,0.812637
445.100,0.812637
445.200,0.812636
445.300,0.812636
445.400,0.812634
445.500,0.812631
445.600,0.812630
445.700,0.812630
445.800,0.812629
445.900,0.812628
446.000,0.812627
446.100,0.812627
446.200,0.812626
446.300,0.812622
446.400,0.812621
446.500,0.812620
446.600,0.812620
446.700,0.812618
446.800,0.812617
446.900,0.812616
447.000,0.812613
447.100,0.812612
447.200,0.812611
447.300,0.812609
447.400,0.812608
447.500,0.812608
447.600,0.812606
447.700,0.812602
447.800,0.812601
447.900,0.812600
448.000,0.812599
448.100,0.812598
448.200,0.812596
448.300,0.812596
448.400,0.812592
448.500,0.812590
448.600,0.812589
448.700,0.812587
448.800,0.812587
448.900,0.812585
449.000,0.812584
449.100,0.812580
449.200,0.812579
449.300,0.812577
449.400,0.812576
449.500,0.812574
449.600,0.812573
449.700,0.812572
449.800,0.812568
449.900,0.812566
450.000,0.812565
450.100,0.812563
450.200,0.812562
450.300,0.812560
450.400,0.812559
450.500,0.812554
450.600,0.812553
450.700,0.812551
450.800,0.812550
450.900,0.812548
451.000,0.812546
451.100,0.812545
451.200,0.812541
451.300,0.812539
451.400,0.812537
451.500,0.812536
451.600,0.812534
451.700,0.812532
451.800,0.812530
451.900,0.812526
452.000,0.812524
452.100,0.812522
452.200,0.812520
452.300,0.812518
452.400,0.812514
452.500,0.812512
452.600,0.812510
452.700,0.812508
452.800,0.812504
452.900,0.812502
453.000,0.812500
453.100,0.812498
453.200,0.812494
453.300,0.812492
453.400,0.812490
453.500,0.812488
453.600,0.812483
453.700,0.812481
453.800,0.812479
453.900,0.812474
454.000,0.812472
454.100,0.812470
454.200,0.812468
454.300,0.812463
454.400,0.812461
454.500,0.812459
454.600,0.812457
454.700,0.812452
454.800,0.812450
454.900,0.812448
455.000,0.812443
455.100,0.812440
455.200,0.812438
455.300,0.812436
455.400,0.812431
455.500,0.812428
455.600,0.812426
455.700,0.812424
455.800,0.812419
455.900,0.812416
456.000,0.812414
456.100,0.812411
456.200,0.812406
456.300,0.812404
456.400,0.812401
456.500,0.812396
456.600,0.812394
456.700,0.812391
456.800,0.812388
456.900,0.812383
457.000,0.812381
457.100,0.812378
457.200,0.812376
457.300,0.812370
457.400,0.812368
457.500,0.812365
457.600,0.812360
457.700,0.812357
457.800,0.812354
457.900,0.812352
458.000,0.812347
458.100,0.812344
458.200,0.812341
458.300,0.812338
458.400,0.812333
458.500,0.812330
458.600,0.812327
458.700,0.812324
458.800,0.812318
458.900,0.812315
459.000,0.812312
459.100,0.812307
459.200,0.812304
459.300,0.812301
459.400,0.812298
459.500,0.812293
459.600,0.812290
459.700,0.812287
459.800,0.812284
459.900,0.812277
460.000,0.812274
460.100,0.812271
460.200,0.812265
460.300,0.812262
460.400,0.812258
460.500,0.812256
460.600,0.812250
460.700,0.812246
460.800,0.812243
460.900,0.812240
461.000,0.812234
461.100,0.812230
461.200,0.812227
461.300,0.812224
461.400,0.812218
461.500,0.812214
461.600,0.812211
461.700,0.812204
461.800,0.812201
461.900,0.812197
462.000,0.812194
462.100,0.812187
462.200,0.812184
462.300,0.812180
462.400,0.812176
462.500,0.812170
462.600,0.812166
462.700,0.812163
462.800,0.812157
462.900,0.812153
463.000,0.812148
463.100,0.812144
463.200,0.812138
463.300,0.812134
463.400,0.812130
463.500,0.812126
463.600,0.812119
463.700,0.812115
463.800,0.812111
463.900,0.812107
464.000,0.812100
464.100,0.812096
464.200,0.812092
464.300,0.812088
464.400,0.812084
464.500,0.812079
464.600,0.812077
464.700,0.812073
464.800,0.812068
464.900,0.812064
465.000,0.812059
465.100,0.812055
465.200,0.812050
465.300,0.812045
465.400,0.812041
465.500,0.812036
465.600,0.812034
465.700,0.812030
465.800,0.812025
465.900,0.812020
466.000,0.812016
466.100,0.812011
466.200,0.812006
466.300,0.812001
466.400,0.811996
466.500,0.811990
466.600,0.811988
466.700,0.811983
466.800,0.811977
466.900,0.811972
467.000,0.811967
467.100,0.811962
467.200,0.811957
467.300,0.811951
467.400,0.811947
467.500,0.811941
467.600,0.811939
467.700,0.811933
467.800,0.811927
467.900,0.811921
468.000,0.811915
468.100,0.811909
468.200,0.811904
468.300,0.811898
468.400,0.811892
468.500,0.811886
468.600,0.811883
468.700,0.811877
468.800,0.811871
468.900,0.811865
469.000,0.811859
469.100,0.811854
469.200,0.811847
469.300,0.811841
469.400,0.811834
469.500,0.811827
469.600,0.811823
469.700,0.811817
469.800,0.811810
469.900,0.811803
470.000,0.811797
470.100,0.811790
470.200,0.811783
470.300,0.811777
470.400,0.811770
470.500,0.811763
470.600,0.811759
470.700,0.811752
470.800,0.811745
470.900,0.811738
471.000,0.811730
471.100,0.811723
471.200,0.811715
471.300,0.811708
471.400,0.811700
471.500,0.811693
471.600,0.811687
471.700,0.811679
471.800,0.811672
471.900,0.811664
472.000,0.811657
472.100,0.811649
472.200,0.811642
472.300,0.811634
472.400,0.811626
472.500,0.811618
472.600,0.811612
472.700,0.811603
472.800,0.811594
472.900,0.811586
473.000,0.811577
473.100,0.811569
473.200,0.811560
473.300,0.811551
473.400,0.811542
473.500,0.811534
473.600,0.811528
473.700,0.811519
473.800,0.811511
473.900,0.811502
474.000,0.811493
474.100,0.811483
474.200,0.811473
474.300,0.811463
474.400,0.811454
474.500,0.811444
474.600,0.811436
474.700,0.811427
474.800,0.811417
474.900,0.811407
475.000,0.811397
475.100,0.811387
475.200,0.811377
475.300,0.811367
475.400,0.811358
475.500,0.811348
475.600,0.811340
475.700,0.811329
475.800,0.811318
475.900,0.811307
476.000,0.811295
476.100,0.811284
476.200,0.811273
476.300,0.811262
476.400,0.811251
476.500,0.811240
476.600,0.811228
476.700,0.811217
476.800,0.811206
476.900,0.811195
477.000,0.811183
477.100,0.811172
477.200,0.811158
477.300,0.811145
477.400,0.811133
477.500,0.811120
477.600,0.811107
477.700,0.811095
477.800,0.811082
477.900,0.811069
478.000,0.811057
478.100,0.811044
478.200,0.811032
478.300,0.811019
478.400,0.811006
478.500,0.810994
478.600,0.810981
478.700,0.810969
478.800,0.810955
478.900,0.810941
479.000,0.810927
479.100,0.810912
479.200,0.810898
479.300,0.810885
479.400,0.810870
479.500,0.810853
479.600,0.810839
479.700,0.810825
479.800,0.810810
479.900,0.810797
480.000,0.810782
480.100,0.810768
480.200,0.810754
480.300,0.810739
480.400,0.810724
480.500,0.810708
480.600,0.810692
480.700,0.810676
480.800,0.810661
480.900,0.810645
481.000,0.810629
481.100,0.810612
481.200,0.810597
481.300,0.810580
481.400,0.810565
481.500,0.810549
481.600,0.810533
481.700,0.810514
481.800,0.810498
481.900,0.810482
482.000,0.810465
482.100,0.810447
482.200,0.810430
482.300,0.810412
482.400,0.810394
482.500,0.810376
482.600,0.810359
482.700,0.810341
482.800,0.810323
482.900,0.810305
483.000,0.810288
483.100,0.810270
483.200,0.810252
483.300,0.810234
483.400,0.810216
483.500,0.810199
483.600,0.810180
483.700,0.810160
483.800,0.810140
483.900,0.810120
484.000,0.810098
484.100,0.810079
484.200,0.810059
484.300,0.810040
484.400,0.810020
484.500,0.810000
484.600,0.809981
484.700,0.809961
484.800,0.809942
484.900,0.809921
485.000,0.809902
485.100,0.809883
485.200,0.809861
485.300,0.809840
485.400,0.809818
485.500,0.809796
485.600,0.809775
485.700,0.809753
485.800,0.809732
485.900,0.809710
486.000,0.809688
486.100,0.809667
486.200,0.809645
486.300,0.809621
486.400,0.809599
486.500,0.809578
486.600,0.809556
486.700,0.809535
486.800,0.809512
486.900,0.809488
487.000,0.809464
487.100,0.809441
487.200,0.809418
487.300,0.809394
487.400,0.809371
487.500,0.809347
487.600,0.809324
487.700,0.809300
487.800,0.809277
487.900,0.809254
488.000,0.809230
488.100,0.809207
488.200,0.809183
488.300,0.809160
488.400,0.809135
488.500,0.809107
488.600,0.809082
488.700,0.809056
488.800,0.809031
488.900,0.809006
489.000,0.808980
489.100,0.808955
489.200,0.808930
489.300,0.808904
489.400,0.808879
489.500,0.808854
489.600,0.808829
489.700,0.808803
489.800,0.808778
489.900,0.808750
490.000,0.808723
490.100,0.808696
490.200,0.808669
490.300,0.808639
490.400,0.808612
490.500,0.808585
490.600,0.808559
490.700,0.808529
490.800,0.808502
490.900,0.808475
491.000,0.808448
491.100,0.808421
491.200,0.808392
491.300,0.808364
491.400,0.808338
491.500,0.808310
491.600,0.808279
491.700,0.808251
491.800,0.808222
491.900,0.808194
492.000,0.808162
492.100,0.808134
492.200,0.808106
492.300,0.808077
492.400,0.808049
492.500,0.808018
492.600,0.807989
492.700,0.807961
492.800,0.807932
492.900,0.807901
493.000,0.807873
493.100,0.807844
493.200,0.807814
493.300,0.807784
493.400,0.807752
493.500,0.807722
493.600,0.807692
493.700,0.807663
493.800,0.807630
493.900,0.807601
494.000,0.807571
494.100,0.807542
494.200,0.807509
494.300,0.807480
494.400,0.807450
494.500,0.807420
494.600,0.807391
494.700,0.807358
494.800,0.807327
494.900,0.807296
495.000,0.807266
495.100,0.807233
495.200,0.807202
495.300,0.807171
495.400,0.807140
495.500,0.807107
495.600,0.807077
495.700,0.807046
495.800,0.807015
495.900,0.806985
496.000,0.806951
496.100,0.806921
496.200,0.806890
496.300,0.806859
496.400,0.806825
496.500,0.806794
496.600,0.806763
496.700,0.806732
496.800,0.806698
496.900,0.806667
497.000,0.806636
497.100,0.806605
497.200,0.806573
497.300,0.806540
497.400,0.806508
497.500,0.806477
497.600,0.806446
497.700,0.806412
497.800,0.806381
497.900,0.806350
498.000,0.806318
498.100,0.806287
498.200,0.806253
498.300,0.806221
498.400,0.806190
498.500,0.806158
498.600,0.806124
498.700,0.806092
498.800,0.806061
498.900,0.806030
499.000,0.805995
499.100,0.805964
499.200,0.805932
499.300,0.805901
499.400,0.805869
499.500,0.805835
499.600,0.805803
499.700,0.805772
499.800,0.805741
499.900,0.805706
500.000,0.805675
500.100,0.805644
500.200,0.805612
500.300,0.805578
500.400,0.805546
500.500,0.805515
500.600,0.805483
500.700,0.805452
500.800,0.805418
500.900,0.805386
501.000,0.805355
501.100,0.805323
501.200,0.805290
501.300,0.805258
501.400,0.805227
501.500,0.805196
501.600,0.805162
501.700,0.805131
501.800,0.805100
501.900,0.805069
502.000,0.805037
502.100,0.805003
502.200,0.804972
502.300,0.804941
502.400,0.804910
502.500,0.804876
502.600,0.804844
502.700,0.804814
502.800,0.804783
502.900,0.804750
503.000,0.804719
503.100,0.804689
503.200,0.804658
503.300,0.804627
503.400,0.804594
503.500,0.804563
503.600,0.804533
503.700,0.804502
503.800,0.804468
503.900,0.804437
504.000,0.804406
504.100,0.804375
504.200,0.804345
504.300,0.804312
504.400,0.804282
504.500,0.804252
504.600,0.804222
504.700,0.804189
504.800,0.804159
504.900,0.804129
505.000,0.804099
505.100,0.804066
505.200,0.804035
505.300,0.804005
505.400,0.803975
505.500,0.803945
505.600,0.803911
505.700,0.803881
505.800,0.803850
505.900,0.803822
506.000,0.803789
506.100,0.803760
506.200,0.803730
506.300,0.803701
506.400,0.803669
506.500,0.803639
506.600,0.803610
506.700,0.803580
506.800,0.803550
506.900,0.803518
507.000,0.803488
507.100,0.803458
507.200,0.803428
507.300,0.803395
507.400,0.803366
507.500,0.803337
507.600,0.803308
507.700,0.803280
507.800,0.803248
507.900,0.803220
508.000,0.803191
508.100,0.803162
508.200,0.803131
508.300,0.803102
508.400,0.803072
508.500,0.803043
508.600,0.803014
508.700,0.802982
508.800,0.802953
508.900,0.802923
509.000,0.802894
509.100,0.802864
509.200,0.802836
509.300,0.802808
509.400,0.802780
509.500,0.802751
509.600,0.802720
509.700,0.802692
509.800,0.802664
509.900,0.802635
510.000,0.802607
510.100,0.802575
510.200,0.802546
510.300,0.802518
510.400,0.802489
510.500,0.802457
510.600,0.802429
510.700,0.802402
510.800,0.802375
510.900,0.802347
511.000,0.802317
511.100,0.802289
511.200,0.802261
511.300,0.802234
511.400,0.802203
511.500,0.802175
511.600,0.802147
511.700,0.802119
511.800,0.802091
511.900,0.802060
512.000,0.802032
512.100,0.802003
512.200,0.801976
512.300,0.801946
512.400,0.801919
512.500,0.801892
512.600,0.801865
512.700,0.801838
512.800,0.801808
512.900,0.801781
513.000,0.801753
513.100,0.801726
513.200,0.801695
513.300,0.801668
513.400,0.801640
513.500,0.801612
513.600,0.801584
513.700,0.801554
513.800,0.801526
513.900,0.801500
514.000,0.801474
514.100,0.801444
514.200,0.801418
514.300,0.801391
514.400,0.801364
514.500,0.801338
514.600,0.801308
514.700,0.801281
514.800,0.801254
514.900,0.801227
515.000,0.801196
515.100,0.801169
515.200,0.801142
515.300,0.801114
515.400,0.801088
515.500,0.801059
515.600,0.801033
515.700,0.801007
515.800,0.800981
515.900,0.800951
516.000,0.800925
516.100,0.800899
516.200,0.800872
516.300,0.800845
516.400,0.800816
516.500,0.800789
516.600,0.800762
516.700,0.800735
516.800,0.800708
516.900,0.800678
517.000,0.800652
517.100,0.800626
517.200,0.800601
517.300,0.800572
517.400,0.800547
