Wavelength,Reflectance
400.000,0.926796
400.100,0.926781
400.200,0.926764
400.300,0.926750
400.400,0.926732
400.500,0.926717
400.600,0.926701
400.700,0.926687
400.800,0.926670
400.900,0.926654
401.000,0.926639
401.100,0.926624
401.200,0.926608
401.300,0.926591
401.400,0.926577
401.500,0.926563
401.600,0.926546
401.700,0.926531
401.800,0.926516
401.900,0.926502
402.000,0.926485
402.100,0.926470
402.200,0.926453
402.300,0.926439
402.400,0.926422
402.500,0.926405
402.600,0.926391
402.700,0.926373
402.800,0.926357
402.900,0.926343
403.000,0.926326
403.100,0.926310
403.200,0.926296
403.300,0.926280
403.400,0.926264
403.500,0.926250
403.600,0.926233
403.700,0.926220
403.800,0.926203
403.900,0.926187
404.000,0.926173
404.100,0.926157
404.200,0.926141
404.300,0.926126
404.400,0.926110
404.500,0.926095
404.600,0.926081
404.700,0.926066
404.800,0.926050
404.900,0.926037
405.000,0.926021
405.100,0.926006
405.200,0.925993
405.300,0.925977
405.400,0.925962
405.500,0.925948
405.600,0.925933
405.700,0.925917
405.800,0.925904
405.900,0.925889
406.000,0.925875
406.100,0.925861
406.200,0.925847
406.300,0.925832
406.400,0.925818
406.500,0.925803
406.600,0.925789
406.700,0.925775
406.800,0.925761
406.900,0.925748
407.000,0.925734
407.100,0.925719
407.200,0.925706
407.300,0.925691
407.400,0.925677
407.500,0.925665
407.600,0.925651
407.700,0.925637
407.800,0.925625
407.900,0.925611
408.000,0.925597
408.100,0.925585
408.200,0.925571
408.300,0.925557
408.400,0.925545
408.500,0.925531
408.600,0.925516
408.700,0.925505
408.800,0.925490
408.900,0.925477
409.000,0.925465
409.100,0.925452
409.200,0.925439
409.300,0.925427
409.400,0.925414
409.500,0.925401
409.600,0.925389
409.700,0.925376
409.800,0.925363
409.900,0.925352
410.000,0.925338
410.100,0.925327
410.200,0.925314
410.300,0.925301
410.400,0.925289
410.500,0.925277
410.600,0.925264
410.700,0.925254
410.800,0.925241
410.900,0.925229
411.000,0.925218
411.100,0.925206
411.200,0.925193
411.300,0.925183
411.400,0.925170
411.500,0.925158
411.600,0.925147
411.700,0.925135
411.800,0.925123
411.900,0.925112
412.000,0.925100
412.100,0.925088
412.200,0.925078
412.300,0.925066
412.400,0.925055
412.500,0.925045
412.600,0.925034
412.700,0.925022
412.800,0.925012
412.900,0.925000
413.000,0.924989
413.100,0.924979
413.200,0.924968
413.300,0.924958
413.400,0.924947
413.500,0.924935
413.600,0.924925
413.700,0.924914
413.800,0.924903
413.900,0.924894
414.000,0.924884
414.100,0.924873
414.200,0.924864
414.300,0.924853
414.400,0.924843
414.500,0.924834
414.600,0.924823
414.700,0.924812
414.800,0.924804
414.900,0.924793
415.000,0.924782
415.100,0.924774
415.200,0.924763
415.300,0.924752
415.400,0.924744
415.500,0.924734
415.600,0.924725
415.700,0.924715
415.800,0.924706
415.900,0.924698
416.000,0.924688
416.100,0.924678
416.200,0.924670
416.300,0.924661
416.400,0.924651
416.500,0.924643
416.600,0.924633
416.700,0.924625
416.800,0.924615
416.900,0.924606
417.000,0.924598
417.100,0.924589
417.200,0.924580
417.300,0.924573
417.400,0.924564
417.500,0.924555
417.600,0.924547
417.700,0.924538
417.800,0.924531
417.900,0.924522
418.000,0.924513
418.100,0.924506
418.200,0.924496
418.300,0.924487
418.400,0.924480
418.500,0.924472
418.600,0.924465
418.700,0.924459
418.800,0.924450
418.900,0.924442
419.000,0.924436
419.100,0.924427
419.200,0.924421
419.300,0.924413
419.400,0.924404
419.500,0.924398
419.600,0.924389
419.700,0.924382
419.800,0.924375
419.900,0.924367
420.000,0.924359
420.100,0.924353
420.200,0.924346
420.300,0.924341
420.400,0.924334
420.500,0.924326
420.600,0.924321
420.700,0.924313
420.800,0.924306
420.900,0.924300
421.000,0.924293
421.100,0.924286
421.200,0.924280
421.300,0.924273
421.400,0.924267
421.500,0.924259
421.600,0.924252
421.700,0.924249
421.800,0.924242
421.900,0.924235
422.000,0.924231
422.100,0.924224
422.200,0.924217
422.300,0.924213
422.400,0.924206
422.500,0.924201
422.600,0.924195
422.700,0.924188
422.800,0.924183
422.900,0.924177
423.000,0.924172
423.100,0.924167
423.200,0.924160
423.300,0.924155
423.400,0.924151
423.500,0.924144
423.600,0.924141
423.700,0.924135
423.800,0.924129
423.900,0.924125
424.000,0.924119
424.100,0.924115
424.200,0.924111
424.300,0.924105
424.400,0.924099
424.500,0.924095
424.600,0.924090
424.700,0.924084
424.800,0.924080
424.900,0.924075
425.000,0.924072
425.100,0.924067
425.200,0.924063
425.300,0.924060
425.400,0.924055
425.500,0.924050
425.600,0.924047
425.700,0.924042
425.800,0.924037
425.900,0.924034
426.000,0.924029
426.100,0.924026
426.200,0.924022
426.300,0.924017
426.400,0.924014
426.500,0.924010
426.600,0.924006
426.700,0.924003
426.800,0.924000
426.900,0.923995
427.000,0.923993
427.100,0.923990
427.200,0.923988
427.300,0.923983
427.400,0.923979
427.500,0.923976
427.600,0.923972
427.700,0.923968
427.800,0.923964
427.900,0.923960
428.000,0.923957
428.100,0.923953
428.200,0.923950
428.300,0.923946
428.400,0.923943
428.500,0.923939
428.600,0.923936
428.700,0.923932
428.800,0.923930
428.900,0.923926
429.000,0.923923
429.100,0.923919
429.200,0.923916
429.300,0.923912
429.400,0.923909
429.500,0.923905
429.600,0.923903
429.700,0.923901
429.800,0.923898
429.900,0.923895
430.000,0.923892
430.100,0.923890
430.200,0.923887
430.300,0.923884
430.400,0.923882
430.500,0.923880
430.600,0.923879
430.700,0.923876
430.800,0.923873
430.900,0.923871
431.000,0.923868
431.100,0.923866
431.200,0.923864
431.300,0.923862
431.400,0.923860
431.500,0.923858
431.600,0.923856
431.700,0.923854
431.800,0.923852
431.900,0.923851
432.000,0.923849
432.100,0.923847
432.200,0.923845
432.300,0.923843
432.400,0.923841
432.500,0.923839
432.600,0.923838
432.700,0.923836
432.800,0.923834
432.900,0.923833
433.000,0.923832
433.100,0.923830
433.200,0.923829
433.300,0.923829
433.400,0.923827
433.500,0.923826
433.600,0.923825
433.700,0.923824
433.800,0.923822
433.900,0.923821
434.000,0.923820
434.100,0.923819
434.200,0.923818
434.300,0.923817
434.400,0.923816
434.500,0.923815
434.600,0.923816
434.700,0.923815
434.800,0.923814
434.900,0.923813
435.000,0.923813
435.100,0.923812
435.200,0.923812
435.300,0.923812
435.400,0.923811
435.500,0.923811
435.600,0.923810
435.700,0.923809
435.800,0.923809
435.900,0.923809
436.000,0.923809
436.100,0.923809
436.200,0.923809
436.300,0.923809
436.400,0.923810
436.500,0.923810
436.600,0.923812
436.700,0.923812
436.800,0.923812
436.900,0.923812
437.000,0.923813
437.100,0.923813
437.200,0.923813
437.300,0.923813
437.400,0.923813
437.500,0.923813
437.600,0.923815
437.700,0.923815
437.800,0.923816
437.900,0.923817
438.000,0.923818
438.100,0.923818
438.200,0.923820
438.300,0.923821
438.400,0.923821
438.500,0.923822
438.600,0.923822
438.700,0.923824
438.800,0.923824
438.900,0.923825
439.000,0.923826
439.100,0.923827
439.200,0.923828
439.300,0.923830
439.400,0.923832
439.500,0.923833
439.600,0.923834
439.700,0.923835
439.800,0.923838
439.900,0.923839
440.000,0.923841
440.100,0.923842
440.200,0.923843
440.300,0.923845
440.400,0.923846
440.500,0.923848
440.600,0.923851
440.700,0.923853
440.800,0.923855
440.900,0.923857
441.000,0.923859
441.100,0.923861
441.200,0.923863
441.300,0.923865
441.400,0.923868
441.500,0.923870
441.600,0.923872
441.700,0.923874
441.800,0.923876
441.900,0.923878
442.000,0.923880
442.100,0.923882
442.200,0.923884
442.300,0.923886
442.400,0.923890
442.500,0.923892
442.600,0.923895
442.700,0.923899
442.800,0.923902
442.900,0.923905
443.000,0.923908
443.100,0.923910
443.200,0.923912
443.300,0.923916
443.400,0.923918
443.500,0.923921
443.600,0.923923
443.700,0.923926
443.800,0.923929
443.900,0.923932
444.000,0.923935
444.100,0.923938
444.200,0.923941
444.300,0.923946
444.400,0.923949
444.500,0.923952
444.600,0.923955
444.700,0.923958
444.800,0.923964
444.900,0.923966
445.000,0.923970
445.100,0.923973
445.200,0.923977
445.300,0.923980
445.400,0.923983
445.500,0.923987
445.600,0.923990
445.700,0.923995
445.800,0.923998
445.900,0.924002
446.000,0.924006
446.100,0.924010
446.200,0.924014
446.300,0.924018
446.400,0.924021
446.500,0.924025
446.600,0.924029
446.700,0.924033
446.800,0.924037
446.900,0.924041
447.000,0.924047
447.100,0.924051
447.200,0.924055
447.300,0.924060
447.400,0.924064
447.500,0.924069
447.600,0.924074
447.700,0.924078
447.800,0.924082
447.900,0.924087
448.000,0.924092
448.100,0.924096
448.200,0.924100
448.300,0.924105
448.400,0.924109
448.500,0.924113
448.600,0.924118
448.700,0.924123
448.800,0.924129
448.900,0.924134
449.000,0.924138
449.100,0.924145
449.200,0.924151
449.300,0.924156
449.400,0.924160
449.500,0.924165
449.600,0.924171
449.700,0.924176
449.800,0.924181
449.900,0.924186
450.000,0.924191
450.100,0.924196
450.200,0.924201
450.300,0.924207
450.400,0.924213
450.500,0.924219
450.600,0.924224
450.700,0.924230
450.800,0.924236
450.900,0.924241
451.000,0.924246
451.100,0.924252
451.200,0.924260
451.300,0.924266
451.400,0.924271
451.500,0.924276
451.600,0.924283
451.700,0.924288
451.800,0.924294
451.900,0.924300
452.000,0.924307
452.100,0.924313
452.200,0.924319
452.300,0.924325
452.400,0.924332
452.500,0.924338
452.600,0.924344
452.700,0.924350
452.800,0.924358
452.900,0.924363
453.000,0.924368
453.100,0.924374
453.200,0.924381
453.300,0.924387
453.400,0.924393
453.500,0.924400
453.600,0.924408
453.700,0.924415
453.800,0.924421
453.900,0.924428
454.000,0.924436
454.100,0.924442
454.200,0.924449
454.300,0.924456
454.400,0.924463
454.500,0.924469
454.600,0.924475
454.700,0.924482
454.800,0.924489
454.900,0.924496
455.000,0.924503
455.100,0.924512
455.200,0.924519
455.300,0.924526
455.400,0.924534
455.500,0.924542
455.600,0.924549
455.700,0.924557
455.800,0.924564
455.900,0.924572
456.000,0.924578
456.100,0.924585
456.200,0.924594
456.300,0.924601
456.400,0.924608
456.500,0.924615
456.600,0.924624
456.700,0.924632
456.800,0.924640
456.900,0.924648
457.000,0.924657
457.100,0.924665
457.200,0.924673
457.300,0.924682
457.400,0.924690
457.500,0.924697
457.600,0.924705
457.700,0.924713
457.800,0.924721
457.900,0.924729
458.000,0.924738
458.100,0.924746
458.200,0.924755
458.300,0.924763
458.400,0.924773
458.500,0.924782
458.600,0.924791
458.700,0.924800
458.800,0.924809
458.900,0.924816
459.000,0.924825
459.100,0.924834
459.200,0.924843
459.300,0.924851
459.400,0.924861
459.500,0.924869
459.600,0.924878
459.700,0.924887
459.800,0.924897
459.900,0.924906
460.000,0.924916
460.100,0.924926
460.200,0.924936
460.300,0.924945
460.400,0.924952
460.500,0.924963
460.600,0.924972
460.700,0.924982
460.800,0.924992
460.900,0.925001
461.000,0.925010
461.100,0.925020
461.200,0.925030
461.300,0.925039
461.400,0.925049
461.500,0.925061
461.600,0.925071
461.700,0.925081
461.800,0.925092
461.900,0.925100
462.000,0.925110
462.100,0.925120
462.200,0.925131
462.300,0.925141
462.400,0.925152
462.500,0.925163
462.600,0.925172
462.700,0.925182
462.800,0.925193
462.900,0.925204
463.000,0.925215
463.100,0.925226
463.200,0.925237
463.300,0.925248
463.400,0.925257
463.500,0.925269
463.600,0.925280
463.700,0.925291
463.800,0.925302
463.900,0.925313
464.000,0.925324
464.100,0.925335
464.200,0.925346
464.300,0.925357
464.400,0.925368
464.500,0.925379
464.600,0.925391
464.700,0.925402
464.800,0.925415
464.900,0.925426
465.000,0.925438
465.100,0.925450
465.200,0.925461
465.300,0.925473
465.400,0.925485
465.500,0.925496
465.600,0.925508
465.700,0.925520
465.800,0.925531
465.900,0.925543
466.000,0.925555
466.100,0.925567
466.200,0.925580
466.300,0.925593
466.400,0.925605
466.500,0.925617
466.600,0.925629
466.700,0.925642
466.800,0.925654
466.900,0.925667
467.000,0.925680
467.100,0.925694
467.200,0.925706
467.300,0.925719
467.400,0.925731
467.500,0.925743
467.600,0.925756
467.700,0.925769
467.800,0.925782
467.900,0.925796
468.000,0.925809
468.100,0.925822
468.200,0.925836
468.300,0.925848
468.400,0.925862
468.500,0.925875
468.600,0.925888
468.700,0.925901
468.800,0.925915
468.900,0.925928
469.000,0.925941
469.100,0.925955
469.200,0.925968
469.300,0.925981
469.400,0.925996
469.500,0.926009
469.600,0.926023
469.700,0.926038
469.800,0.926051
469.900,0.926065
470.000,0.926079
470.100,0.926093
470.200,0.926107
470.300,0.926121
470.400,0.926135
470.500,0.926148
470.600,0.926163
470.700,0.926177
470.800,0.926190
470.900,0.926206
471.000,0.926220
471.100,0.926234
471.200,0.926250
471.300,0.926264
471.400,0.926278
471.500,0.926294
471.600,0.926308
471.700,0.926322
471.800,0.926337
471.900,0.926352
472.000,0.926366
472.100,0.926381
472.200,0.926396
472.300,0.926410
472.400,0.926425
472.500,0.926441
472.600,0.926455
472.700,0.926471
472.800,0.926486
472.900,0.926502
473.000,0.926517
473.100,0.926534
473.200,0.926550
473.300,0.926565
473.400,0.926580
473.500,0.926596
473.600,0.926611
473.700,0.926626
473.800,0.926642
473.900,0.926657
474.000,0.926672
474.100,0.926688
474.200,0.926704
474.300,0.926720
474.400,0.926737
474.500,0.926752
474.600,0.926768
474.700,0.926785
474.800,0.926800
474.900,0.926817
475.000,0.926833
475.100,0.926848
475.200,0.926865
475.300,0.926881
475.400,0.926896
475.500,0.926913
475.600,0.926929
475.700,0.926945
475.800,0.926962
475.900,0.926978
476.000,0.926995
476.100,0.927012
476.200,0.927027
476.300,0.927044
476.400,0.927060
476.500,0.927075
476.600,0.927092
476.700,0.927109
476.800,0.927125
476.900,0.927140
477.000,0.927157
477.100,0.927173
477.200,0.927189
477.300,0.927206
477.400,0.927224
477.500,0.927239
477.600,0.927256
477.700,0.927274
477.800,0.927289
477.900,0.927306
478.000,0.927324
478.100,0.927340
478.200,0.927357
478.300,0.927374
478.400,0.927390
478.500,0.927407
478.600,0.927423
478.700,0.927440
478.800,0.927457
478.900,0.927474
479.000,0.927491
479.100,0.927508
479.200,0.927525
479.300,0.927543
479.400,0.927561
479.500,0.927577
479.600,0.927595
479.700,0.927612
479.800,0.927628
479.900,0.927646
480.000,0.927663
480.100,0.927680
480.200,0.927697
480.300,0.927715
480.400,0.927731
480.500,0.927749
480.600,0.927767
480.700,0.927784
480.800,0.927801
480.900,0.927819
481.000,0.927837
481.100,0.927854
481.200,0.927872
481.300,0.927890
481.400,0.927906
481.500,0.927924
481.600,0.927942
481.700,0.927959
481.800,0.927976
481.900,0.927994
482.000,0.928011
482.100,0.928029
482.200,0.928047
482.300,0.928065
482.400,0.928082
482.500,0.928100
482.600,0.928118
482.700,0.928135
482.800,0.928153
482.900,0.928171
483.000,0.928188
483.100,0.928206
483.200,0.928224
483.300,0.928241
483.400,0.928259
483.500,0.928277
483.600,0.928295
483.700,0.928311
483.800,0.928330
483.900,0.928348
484.000,0.928365
484.100,0.928383
484.200,0.928401
484.300,0.928418
484.400,0.928436
484.500,0.928455
484.600,0.928471
484.700,0.928489
484.800,0.928507
484.900,0.928525
485.000,0.928542
485.100,0.928560
485.200,0.928578
485.300,0.928595
485.400,0.928613
485.500,0.928630
485.600,0.928648
485.700,0.928666
485.800,0.928684
485.900,0.928700
486.000,0.928718
486.100,0.928736
486.200,0.928754
486.300,0.928771
486.400,0.928789
486.500,0.928806
486.600,0.928823
486.700,0.928841
486.800,0.928859
486.900,0.928875
487.000,0.928892
487.100,0.928911
487.200,0.928927
487.300,0.928945
487.400,0.928962
487.500,0.928978
487.600,0.928996
487.700,0.929013
487.800,0.929031
487.900,0.929048
488.000,0.929065
488.100,0.929083
488.200,0.929099
488.300,0.929117
488.400,0.929134
488.500,0.929150
488.600,0.929167
488.700,0.929184
488.800,0.929200
488.900,0.929217
489.000,0.929234
489.100,0.929251
489.200,0.929266
489.300,0.929284
489.400,0.929301
489.500,0.929317
489.600,0.929334
489.700,0.929351
489.800,0.929368
489.900,0.929384
490.000,0.929400
490.100,0.929416
490.200,0.929432
490.300,0.929448
490.400,0.929464
490.500,0.929480
490.600,0.929496
490.700,0.929512
490.800,0.929528
490.900,0.929544
491.000,0.929561
491.100,0.929576
491.200,0.929592
491.300,0.929609
491.400,0.929625
491.500,0.929641
491.600,0.929655
491.700,0.929671
491.800,0.929686
491.900,0.929701
492.000,0.929715
492.100,0.929730
492.200,0.929746
492.300,0.929761
492.400,0.929775
492.500,0.929791
492.600,0.929806
492.700,0.929822
492.800,0.929835
492.900,0.929851
493.000,0.929866
493.100,0.929882
493.200,0.929896
493.300,0.929908
493.400,0.929922
493.500,0.929936
493.600,0.929951
493.700,0.929963
493.800,0.929978
493.900,0.929992
494.000,0.930006
494.100,0.930019
494.200,0.930033
494.300,0.930048
494.400,0.930062
494.500,0.930075
494.600,0.930089
494.700,0.930102
494.800,0.930115
494.900,0.930128
495.000,0.930139
495.100,0.930152
495.200,0.930165
495.300,0.930177
495.400,0.930189
495.500,0.930202
495.600,0.930214
495.700,0.930228
495.800,0.930239
495.900,0.930252
496.000,0.930265
496.100,0.930278
496.200,0.930290
496.300,0.930301
496.400,0.930313
496.500,0.930324
496.600,0.930335
496.700,0.930345
496.800,0.930357
496.900,0.930367
497.000,0.930378
497.100,0.930389
497.200,0.930400
497.300,0.930412
497.400,0.930423
497.500,0.930433
497.600,0.930444
497.700,0.930456
497.800,0.930467
497.900,0.930476
498.000,0.930486
498.100,0.930495
498.200,0.930505
498.300,0.930514
498.400,0.930523
498.500,0.930532
498.600,0.930541
498.700,0.930551
498.800,0.930559
498.900,0.930570
499.000,0.930579
499.100,0.930589
499.200,0.930597
499.300,0.930608
499.400,0.930617
499.500,0.930625
499.600,0.930632
499.700,0.930640
499.800,0.930648
499.900,0.930655
500.000,0.930664
500.100,0.930670
500.200,0.930678
500.300,0.930686
500.400,0.930694
500.500,0.930701
500.600,0.930708
500.700,0.930717
500.800,0.930725
500.900,0.930732
501.000,0.930740
501.100,0.930747
501.200,0.930752
501.300,0.930757
501.400,0.930763
501.500,0.930769
501.600,0.930776
501.700,0.930781
501.800,0.930787
501.900,0.930793
502.000,0.930799
502.100,0.930805
502.200,0.930811
502.300,0.930817
502.400,0.930823
502.500,0.930830
502.600,0.930835
502.700,0.930839
502.800,0.930843
502.900,0.930848
503.000,0.930851
503.100,0.930855
503.200,0.930860
503.300,0.930864
503.400,0.930868
503.500,0.930872
503.600,0.930876
503.700,0.930881
503.800,0.930885
503.900,0.930889
504.000,0.930894
504.100,0.930898
504.200,0.930903
504.300,0.930904
504.400,0.930907
504.500,0.930910
504.600,0.930912
504.700,0.930914
504.800,0.930916
504.900,0.930919
505.000,0.930922
505.100,0.930925
505.200,0.930926
505.300,0.930929
505.400,0.930932
505.500,0.930935
505.600,0.930937
505.700,0.930940
505.800,0.930943
505.900,0.930944
506.000,0.930944
506.100,0.930945
506.200,0.930946
506.300,0.930947
506.400,0.930947
506.500,0.930948
506.600,0.930949
506.700,0.930950
506.800,0.930950
506.900,0.930951
507.000,0.930953
507.100,0.930953
507.200,0.930954
507.300,0.930954
507.400,0.930955
507.500,0.930955
507.600,0.930953
507.700,0.930953
507.800,0.930952
507.900,0.930951
508.000,0.930950
508.100,0.930950
508.200,0.930949
508.300,0.930948
508.400,0.930948
508.500,0.930947
508.600,0.930946
508.700,0.930945
508.800,0.930944
508.900,0.930944
509.000,0.930943
509.100,0.930941
509.200,0.930939
509.300,0.930936
509.400,0.930934
509.500,0.930932
509.600,0.930930
509.700,0.930928
509.800,0.930926
509.900,0.930923
510.000,0.930921
510.100,0.930918
510.200,0.930917
510.300,0.930915
510.400,0.930913
510.500,0.930910
510.600,0.930909
510.700,0.930904
510.800,0.930901
510.900,0.930898
511.000,0.930894
511.100,0.930891
511.200,0.930887
511.300,0.930884
511.400,0.930880
511.500,0.930876
511.600,0.930873
511.700,0.930870
511.800,0.930866
511.900,0.930863
512.000,0.930860
512.100,0.930856
512.200,0.930852
512.300,0.930848
512.400,0.930842
512.500,0.930838
512.600,0.930833
512.700,0.930829
512.800,0.930825
512.900,0.930820
513.000,0.930815
513.100,0.930811
513.200,0.930805
513.300,0.930801
513.400,0.930797
513.500,0.930792
513.600,0.930787
513.700,0.930783
513.800,0.930777
513.900,0.930772
514.000,0.930766
514.100,0.930761
514.200,0.930755
514.300,0.930749
514.400,0.930744
514.500,0.930739
514.600,0.930732
514.700,0.930727
514.800,0.930722
514.900,0.930716
515.000,0.930710
515.100,0.930704
515.200,0.930698
515.300,0.930693
515.400,0.930686
515.500,0.930680
515.600,0.930674
515.700,0.930667
515.800,0.930661
515.900,0.930655
516.000,0.930648
516.100,0.930642
516.200,0.930636
516.300,0.930629
516.400,0.930622
516.500,0.930615
516.600,0.930609
516.700,0.930602
516.800,0.930595
516.900,0.930589
517.000,0.930582
517.100,0.930575
517.200,0.930568
517.300,0.930561
517.400,0.930554
