Angle,Reflectance
55.000,0.331198
55.001,0.331221
55.002,0.331244
55.003,0.331268
55.004,0.331291
55.005,0.331314
55.006,0.331338
55.007,0.331361
55.008,0.331384
55.009,0.331408
55.010,0.331431
55.011,0.331454
55.012,0.331478
55.013,0.331501
55.014,0.331524
55.015,0.331548
55.016,0.331571
55.017,0.331594
55.018,0.331618
55.019,0.331641
55.020,0.331665
55.021,0.331688
55.022,0.331711
55.023,0.331735
55.024,0.331758
55.025,0.331781
55.026,0.331805
55.027,0.331828
55.028,0.331851
55.029,0.331875
55.030,0.331898
55.031,0.331921
55.032,0.331945
55.033,0.331968
55.034,0.331991
55.035,0.332015
55.036,0.332038
55.037,0.332061
55.038,0.332085
55.039,0.332108
55.040,0.332131
55.041,0.332155
55.042,0.332178
55.043,0.332201
55.044,0.332225
55.045,0.332248
55.046,0.332271
55.047,0.332295
55.048,0.332318
55.049,0.332341
55.050,0.332365
55.051,0.332388
55.052,0.332411
55.053,0.332435
55.054,0.332458
55.055,0.332481
55.056,0.332505
55.057,0.332528
55.058,0.332552
55.059,0.332575
55.060,0.332598
55.061,0.332622
55.062,0.332645
55.063,0.332668
55.064,0.332692
55.065,0.332715
55.066,0.332738
55.067,0.332762
55.068,0.332785
55.069,0.332808
55.070,0.332832
55.071,0.332855
55.072,0.332878
55.073,0.332902
55.074,0.332925
55.075,0.332948
55.076,0.332972
55.077,0.332995
55.078,0.333019
55.079,0.333042
55.080,0.333065
55.081,0.333089
55.082,0.333112
55.083,0.333135
55.084,0.333159
55.085,0.333182
55.086,0.333205
55.087,0.333229
55.088,0.333252
55.089,0.333275
55.090,0.333299
55.091,0.333322
55.092,0.333345
55.093,0.333369
55.094,0.333392
55.095,0.333416
55.096,0.333439
55.097,0.333462
55.098,0.333486
55.099,0.333509
55.100,0.333532
55.101,0.333556
55.102,0.333579
55.103,0.333602
55.104,0.333626
55.105,0.333649
55.106,0.333673
55.107,0.333696
55.108,0.333719
55.109,0.333743
55.110,0.333766
55.111,0.333789
55.112,0.333813
55.113,0.333836
55.114,0.333859
55.115,0.333883
55.116,0.333906
55.117,0.333929
55.118,0.333953
55.119,0.333976
55.120,0.334000
55.121,0.334023
55.122,0.334046
55.123,0.334070
55.124,0.334093
55.125,0.334116
55.126,0.334140
55.127,0.334163
55.128,0.334186
55.129,0.334210
55.130,0.334233
55.131,0.334257
55.132,0.334280
55.133,0.334303
55.134,0.334327
55.135,0.334350
55.136,0.334373
55.137,0.334397
55.138,0.334420
55.139,0.334443
55.140,0.334467
55.141,0.334490
55.142,0.334514
55.143,0.334537
55.144,0.334560
55.145,0.334584
55.146,0.334607
55.147,0.334630
55.148,0.334654
55.149,0.334677
55.150,0.334701
55.151,0.334724
55.152,0.334747
55.153,0.334771
55.154,0.334794
55.155,0.334817
55.156,0.334841
55.157,0.334864
55.158,0.334887
55.159,0.334911
55.160,0.334934
55.161,0.334958
55.162,0.334981
55.163,0.335004
55.164,0.335028
55.165,0.335051
55.166,0.335074
55.167,0.335098
55.168,0.335121
55.169,0.335145
55.170,0.335168
55.171,0.335191
55.172,0.335215
55.173,0.335238
55.174,0.335261
55.175,0.335285
55.176,0.335308
55.177,0.335332
55.178,0.335355
55.179,0.335378
55.180,0.335402
55.181,0.335425
55.182,0.335448
55.183,0.335472
55.184,0.335495
55.185,0.335519
55.186,0.335542
55.187,0.335565
55.188,0.335589
55.189,0.335612
55.190,0.335635
55.191,0.335659
55.192,0.335682
55.193,0.335706
55.194,0.335729
55.195,0.335752
55.196,0.335776
55.197,0.335799
55.198,0.335822
55.199,0.335846
55.200,0.335869
55.201,0.335893
55.202,0.335916
55.203,0.335939
55.204,0.335963
55.205,0.335986
55.206,0.336010
55.207,0.336033
55.208,0.336056
55.209,0.336080
55.210,0.336103
55.211,0.336126
55.212,0.336150
55.213,0.336173
55.214,0.336197
55.215,0.336220
55.216,0.336243
55.217,0.336267
55.218,0.336290
55.219,0.336313
55.220,0.336337
55.221,0.336360
55.222,0.336384
55.223,0.336407
55.224,0.336430
55.225,0.336454
55.226,0.336477
55.227,0.336501
55.228,0.336524
55.229,0.336547
55.230,0.336571
55.231,0.336594
55.232,0.336617
55.233,0.336641
55.234,0.336664
55.235,0.336688
55.236,0.336711
55.237,0.336734
55.238,0.336758
55.239,0.336781
55.240,0.336805
55.241,0.336828
55.242,0.336851
55.243,0.336875
55.244,0.336898
55.245,0.336922
55.246,0.336945
55.247,0.336968
55.248,0.336992
55.249,0.337015
55.250,0.337038
55.251,0.337062
55.252,0.337085
55.253,0.337109
55.254,0.337132
55.255,0.337155
55.256,0.337179
55.257,0.337202
55.258,0.337226
55.259,0.337249
55.260,0.337272
55.261,0.337296
55.262,0.337319
55.263,0.337343
55.264,0.337366
55.265,0.337389
55.266,0.337413
55.267,0.337436
55.268,0.337460
55.269,0.337483
55.270,0.337506
55.271,0.337530
55.272,0.337553
55.273,0.337577
55.274,0.337600
55.275,0.337623
55.276,0.337647
55.277,0.337670
55.278,0.337693
55.279,0.337717
55.280,0.337740
55.281,0.337764
55.282,0.337787
55.283,0.337810
55.284,0.337834
55.285,0.337857
55.286,0.337881
55.287,0.337904
55.288,0.337927
55.289,0.337951
55.290,0.337974
55.291,0.337998
55.292,0.338021
55.293,0.338044
55.294,0.338068
55.295,0.338091
55.296,0.338115
55.297,0.338138
55.298,0.338161
55.299,0.338185
55.300,0.338208
55.301,0.338232
55.302,0.338255
55.303,0.338278
55.304,0.338302
55.305,0.338325
55.306,0.338349
55.307,0.338372
55.308,0.338395
55.309,0.338419
55.310,0.338442
55.311,0.338466
55.312,0.338489
55.313,0.338512
55.314,0.338536
55.315,0.338559
55.316,0.338583
55.317,0.338606
55.318,0.338629
55.319,0.338653
55.320,0.338676
55.321,0.338700
55.322,0.338723
55.323,0.338746
55.324,0.338770
55.325,0.338793
55.326,0.338817
55.327,0.338840
55.328,0.338864
55.329,0.338887
55.330,0.338910
55.331,0.338934
55.332,0.338957
55.333,0.338981
55.334,0.339004
55.335,0.339027
55.336,0.339051
55.337,0.339074
55.338,0.339098
55.339,0.339121
55.340,0.339144
55.341,0.339168
55.342,0.339191
55.343,0.339215
55.344,0.339238
55.345,0.339261
55.346,0.339285
55.347,0.339308
55.348,0.339332
55.349,0.339355
55.350,0.339378
55.351,0.339402
55.352,0.339425
55.353,0.339449
55.354,0.339472
55.355,0.339496
55.356,0.339519
55.357,0.339542
55.358,0.339566
55.359,0.339589
55.360,0.339613
55.361,0.339636
55.362,0.339659
55.363,0.339683
55.364,0.339706
55.365,0.339730
55.366,0.339753
55.367,0.339776
55.368,0.339800
55.369,0.339823
55.370,0.339847
55.371,0.339870
55.372,0.339894
55.373,0.339917
55.374,0.339940
55.375,0.339964
55.376,0.339987
55.377,0.340011
55.378,0.340034
55.379,0.340057
55.380,0.340081
55.381,0.340104
55.382,0.340128
55.383,0.340151
55.384,0.340175
55.385,0.340198
55.386,0.340221
55.387,0.340245
55.388,0.340268
55.389,0.340292
55.390,0.340315
55.391,0.340338
55.392,0.340362
55.393,0.340385
55.394,0.340409
55.395,0.340432
55.396,0.340456
55.397,0.340479
55.398,0.340502
55.399,0.340526
55.400,0.340549
55.401,0.340573
55.402,0.340596
55.403,0.340619
55.404,0.340643
55.405,0.340666
55.406,0.340690
55.407,0.340713
55.408,0.340737
55.409,0.340760
55.410,0.340783
55.411,0.340807
55.412,0.340830
55.413,0.340854
55.414,0.340877
55.415,0.340900
55.416,0.340924
55.417,0.340947
55.418,0.340971
55.419,0.340994
55.420,0.341018
55.421,0.341041
55.422,0.341064
55.423,0.341088
55.424,0.341111
55.425,0.341135
55.426,0.341158
55.427,0.341182
55.428,0.341205
55.429,0.341228
55.430,0.341252
55.431,0.341275
55.432,0.341299
55.433,0.341322
55.434,0.341346
55.435,0.341369
55.436,0.341392
55.437,0.341416
55.438,0.341439
55.439,0.341463
55.440,0.341486
55.441,0.341510
55.442,0.341533
55.443,0.341556
55.444,0.341580
55.445,0.341603
55.446,0.341627
55.447,0.341650
55.448,0.341673
55.449,0.341697
55.450,0.341720
55.451,0.341744
55.452,0.341767
55.453,0.341791
55.454,0.341814
55.455,0.341837
55.456,0.341861
55.457,0.341884
55.458,0.341908
55.459,0.341931
55.460,0.341955
55.461,0.341978
55.462,0.342001
55.463,0.342025
55.464,0.342048
55.465,0.342072
55.466,0.342095
55.467,0.342119
55.468,0.342142
55.469,0.342166
55.470,0.342189
55.471,0.342212
55.472,0.342236
55.473,0.342259
55.474,0.342283
55.475,0.342306
55.476,0.342330
55.477,0.342353
55.478,0.342376
55.479,0.342400
55.480,0.342423
55.481,0.342447
55.482,0.342470
55.483,0.342494
55.484,0.342517
55.485,0.342540
55.486,0.342564
55.487,0.342587
55.488,0.342611
55.489,0.342634
55.490,0.342658
55.491,0.342681
55.492,0.342704
55.493,0.342728
55.494,0.342751
55.495,0.342775
55.496,0.342798
55.497,0.342822
55.498,0.342845
55.499,0.342868
55.500,0.342892
55.501,0.342915
55.502,0.342939
55.503,0.342962
55.504,0.342986
55.505,0.343009
55.506,0.343033
55.507,0.343056
55.508,0.343079
55.509,0.343103
55.510,0.343126
55.511,0.343150
55.512,0.343173
55.513,0.343197
55.514,0.343220
55.515,0.343243
55.516,0.343267
55.517,0.343290
55.518,0.343314
55.519,0.343337
55.520,0.343361
55.521,0.343384
55.522,0.343408
55.523,0.343431
55.524,0.343454
55.525,0.343478
55.526,0.343501
55.527,0.343525
55.528,0.343548
55.529,0.343572
55.530,0.343595
55.531,0.343619
55.532,0.343642
55.533,0.343665
55.534,0.343689
55.535,0.343712
55.536,0.343736
55.537,0.343759
55.538,0.343783
55.539,0.343806
55.540,0.343829
55.541,0.343853
55.542,0.343876
55.543,0.343900
55.544,0.343923
55.545,0.343947
55.546,0.343970
55.547,0.343994
55.548,0.344017
55.549,0.344040
55.550,0.344064
55.551,0.344087
55.552,0.344111
55.553,0.344134
55.554,0.344158
55.555,0.344181
55.556,0.344205
55.557,0.344228
55.558,0.344251
55.559,0.344275
55.560,0.344298
55.561,0.344322
55.562,0.344345
55.563,0.344369
55.564,0.344392
55.565,0.344416
55.566,0.344439
55.567,0.344462
55.568,0.344486
55.569,0.344509
55.570,0.344533
55.571,0.344556
55.572,0.344580
55.573,0.344603
55.574,0.344627
55.575,0.344650
55.576,0.344673
55.577,0.344697
55.578,0.344720
55.579,0.344744
55.580,0.344767
55.581,0.344791
55.582,0.344814
55.583,0.344838
55.584,0.344861
55.585,0.344885
55.586,0.344908
55.587,0.344931
55.588,0.344955
55.589,0.344978
55.590,0.345002
55.591,0.345025
55.592,0.345049
55.593,0.345072
55.594,0.345096
55.595,0.345119
55.596,0.345142
55.597,0.345166
55.598,0.345189
55.599,0.345213
55.600,0.345236
55.601,0.345260
55.602,0.345283
55.603,0.345307
55.604,0.345330
55.605,0.345354
55.606,0.345377
55.607,0.345400
55.608,0.345424
55.609,0.345447
55.610,0.345471
55.611,0.345494
55.612,0.345518
55.613,0.345541
55.614,0.345565
55.615,0.345588
55.616,0.345611
55.617,0.345635
55.618,0.345658
55.619,0.345682
55.620,0.345705
55.621,0.345729
55.622,0.345752
55.623,0.345776
55.624,0.345799
55.625,0.345823
55.626,0.345846
55.627,0.345869
55.628,0.345893
55.629,0.345916
55.630,0.345940
55.631,0.345963
55.632,0.345987
55.633,0.346010
55.634,0.346034
55.635,0.346057
55.636,0.346081
55.637,0.346104
55.638,0.346127
55.639,0.346151
55.640,0.346174
55.641,0.346198
55.642,0.346221
55.643,0.346245
55.644,0.346268
55.645,0.346292
55.646,0.346315
55.647,0.346339
55.648,0.346362
55.649,0.346385
55.650,0.346409
55.651,0.346432
55.652,0.346456
55.653,0.346479
55.654,0.346503
55.655,0.346526
55.656,0.346550
55.657,0.346573
55.658,0.346597
55.659,0.346620
55.660,0.346644
55.661,0.346667
55.662,0.346690
55.663,0.346714
55.664,0.346737
55.665,0.346761
55.666,0.346784
55.667,0.346808
55.668,0.346831
55.669,0.346855
55.670,0.346878
55.671,0.346902
55.672,0.346925
55.673,0.346949
55.674,0.346972
55.675,0.346995
55.676,0.347019
55.677,0.347042
55.678,0.347066
55.679,0.347089
55.680,0.347113
55.681,0.347136
55.682,0.347160
55.683,0.347183
55.684,0.347207
55.685,0.347230
55.686,0.347253
55.687,0.347277
55.688,0.347300
55.689,0.347324
55.690,0.347347
55.691,0.347371
55.692,0.347394
55.693,0.347418
55.694,0.347441
55.695,0.347465
55.696,0.347488
55.697,0.347512
55.698,0.347535
55.699,0.347559
55.700,0.347582
55.701,0.347605
55.702,0.347629
55.703,0.347652
55.704,0.347676
55.705,0.347699
55.706,0.347723
55.707,0.347746
55.708,0.347770
55.709,0.347793
55.710,0.347817
55.711,0.347840
55.712,0.347864
55.713,0.347887
55.714,0.347910
55.715,0.347934
55.716,0.347957
55.717,0.347981
55.718,0.348004
55.719,0.348028
55.720,0.348051
55.721,0.348075
55.722,0.348098
55.723,0.348122
55.724,0.348145
55.725,0.348169
55.726,0.348192
55.727,0.348216
55.728,0.348239
55.729,0.348262
55.730,0.348286
55.731,0.348309
55.732,0.348333
55.733,0.348356
55.734,0.348380
55.735,0.348403
55.736,0.348427
55.737,0.348450
55.738,0.348474
55.739,0.348497
55.740,0.348521
55.741,0.348544
55.742,0.348568
55.743,0.348591
55.744,0.348615
55.745,0.348638
55.746,0.348661
55.747,0.348685
55.748,0.348708
55.749,0.348732
55.750,0.348755
55.751,0.348779
55.752,0.348802
55.753,0.348826
55.754,0.348849
55.755,0.348873
55.756,0.348896
55.757,0.348920
55.758,0.348943
55.759,0.348967
55.760,0.348990
55.761,0.349013
55.762,0.349037
55.763,0.349060
55.764,0.349084
55.765,0.349107
55.766,0.349131
55.767,0.349154
55.768,0.349178
55.769,0.349201
55.770,0.349225
55.771,0.349248
55.772,0.349272
55.773,0.349295
55.774,0.349319
55.775,0.349342
55.776,0.349366
55.777,0.349389
55.778,0.349413
55.779,0.349436
55.780,0.349459
55.781,0.349483
55.782,0.349506
55.783,0.349530
55.784,0.349553
55.785,0.349577
55.786,0.349600
55.787,0.349624
55.788,0.349647
55.789,0.349671
55.790,0.349694
55.791,0.349718
55.792,0.349741
55.793,0.349765
55.794,0.349788
55.795,0.349812
55.796,0.349835
55.797,0.349859
55.798,0.349882
55.799,0.349905
55.800,0.349929
55.801,0.349952
55.802,0.349976
55.803,0.349999
55.804,0.350023
55.805,0.350046
55.806,0.350070
55.807,0.350093
55.808,0.350117
55.809,0.350140
55.810,0.350164
55.811,0.350187
55.812,0.350211
55.813,0.350234
55.814,0.350258
55.815,0.350281
55.816,0.350305
55.817,0.350328
55.818,0.350352
55.819,0.350375
55.820,0.350398
55.821,0.350422
55.822,0.350445
55.823,0.350469
55.824,0.350492
55.825,0.350516
55.826,0.350539
55.827,0.350563
55.828,0.350586
55.829,0.350610
55.830,0.350633
55.831,0.350657
55.832,0.350680
55.833,0.350704
55.834,0.350727
55.835,0.350751
55.836,0.350774
55.837,0.350798
55.838,0.350821
55.839,0.350845
55.840,0.350868
55.841,0.350892
55.842,0.350915
55.843,0.350938
55.844,0.350962
55.845,0.350985
55.846,0.351009
55.847,0.351032
55.848,0.351056
55.849,0.351079
55.850,0.351103
55.851,0.351126
55.852,0.351150
55.853,0.351173
55.854,0.351197
55.855,0.351220
55.856,0.351244
55.857,0.351267
55.858,0.351291
55.859,0.351314
55.860,0.351338
55.861,0.351361
55.862,0.351385
55.863,0.351408
55.864,0.351432
55.865,0.351455
55.866,0.351479
55.867,0.351502
55.868,0.351525
55.869,0.351549
55.870,0.351572
55.871,0.351596
55.872,0.351619
55.873,0.351643
55.874,0.351666
55.875,0.351690
55.876,0.351713
55.877,0.351737
55.878,0.351760
55.879,0.351784
55.880,0.351807
55.881,0.351831
55.882,0.351854
55.883,0.351878
55.884,0.351901
55.885,0.351925
55.886,0.351948
55.887,0.351972
55.888,0.351995
55.889,0.352019
55.890,0.352042
55.891,0.352066
55.892,0.352089
55.893,0.352113
55.894,0.352136
55.895,0.352160
55.896,0.352183
55.897,0.352207
55.898,0.352230
55.899,0.352253
55.900,0.352277
55.901,0.352300
55.902,0.352324
55.903,0.352347
55.904,0.352371
55.905,0.352394
55.906,0.352418
55.907,0.352441
55.908,0.352465
55.909,0.352488
55.910,0.352512
55.911,0.352535
55.912,0.352559
55.913,0.352582
55.914,0.352606
55.915,0.352629
55.916,0.352653
55.917,0.352676
55.918,0.352700
55.919,0.352723
55.920,0.352747
55.921,0.352770
55.922,0.352794
55.923,0.352817
55.924,0.352841
55.925,0.352864
55.926,0.352888
55.927,0.352911
55.928,0.352935
55.929,0.352958
55.930,0.352982
55.931,0.353005
55.932,0.353029
55.933,0.353052
55.934,0.353076
55.935,0.353099
55.936,0.353122
55.937,0.353146
55.938,0.353169
55.939,0.353193
55.940,0.353216
55.941,0.353240
55.942,0.353263
55.943,0.353287
55.944,0.353310
55.945,0.353334
55.946,0.353357
55.947,0.353381
55.948,0.353404
55.949,0.353428
55.950,0.353451
55.951,0.353475
55.952,0.353498
55.953,0.353522
55.954,0.353545
55.955,0.353569
55.956,0.353592
55.957,0.353616
55.958,0.353639
55.959,0.353663
55.960,0.353686
55.961,0.353710
55.962,0.353733
55.963,0.353757
55.964,0.353780
55.965,0.353804
55.966,0.353827
55.967,0.353851
55.968,0.353874
55.969,0.353898
55.970,0.353921
55.971,0.353945
55.972,0.353968
55.973,0.353992
55.974,0.354015
55.975,0.354039
55.976,0.354062
55.977,0.354086
55.978,0.354109
55.979,0.354133
55.980,0.354156
55.981,0.354180
55.982,0.354203
55.983,0.354226
55.984,0.354250
55.985,0.354273
55.986,0.354297
55.987,0.354320
55.988,0.354344
55.989,0.354367
55.990,0.354391
55.991,0.354414
55.992,0.354438
55.993,0.354461
55.994,0.354485
55.995,0.354508
55.996,0.354532
55.997,0.354555
55.998,0.354579
55.999,0.354602
56.000,0.354626
56.001,0.354649
56.002,0.354673
56.003,0.354696
56.004,0.354720
56.005,0.354743
56.006,0.354767
56.007,0.354790
56.008,0.354814
56.009,0.354837
56.010,0.354861
56.011,0.354884
56.012,0.354908
56.013,0.354931
56.014,0.354955
56.015,0.354978
56.016,0.355002
56.017,0.355025
56.018,0.355049
56.019,0.355072
56.020,0.355096
56.021,0.355119
56.022,0.355143
56.023,0.355166
56.024,0.355190
56.025,0.355213
56.026,0.355237
56.027,0.355260
56.028,0.355284
56.029,0.355307
56.030,0.355331
56.031,0.355354
56.032,0.355378
56.033,0.355401
56.034,0.355425
56.035,0.355448
56.036,0.355472
56.037,0.355495
56.038,0.355519
56.039,0.355542
56.040,0.355566
56.041,0.355589
56.042,0.355613
56.043,0.355636
56.044,0.355660
56.045,0.355683
56.046,0.355707
56.047,0.355730
56.048,0.355754
56.049,0.355777
56.050,0.355801
56.051,0.355824
56.052,0.355848
56.053,0.355871
56.054,0.355895
56.055,0.355918
56.056,0.355942
56.057,0.355965
56.058,0.355989
56.059,0.356012
56.060,0.356036
56.061,0.356059
56.062,0.356083
56.063,0.356106
56.064,0.356130
56.065,0.356153
56.066,0.356177
56.067,0.356200
56.068,0.356224
56.069,0.356247
56.070,0.356271
56.071,0.356294
56.072,0.356318
56.073,0.356341
56.074,0.356365
56.075,0.356388
56.076,0.356412
56.077,0.356435
56.078,0.356458
56.079,0.356482
56.080,0.356505
56.081,0.356529
56.082,0.356552
56.083,0.356576
56.084,0.356599
56.085,0.356623
56.086,0.356646
56.087,0.356670
56.088,0.356693
56.089,0.356717
56.090,0.356740
56.091,0.356764
56.092,0.356787
56.093,0.356811
56.094,0.356834
56.095,0.356858
56.096,0.356881
56.097,0.356905
56.098,0.356928
56.099,0.356952
56.100,0.356975
56.101,0.356999
56.102,0.357022
56.103,0.357046
56.104,0.357069
56.105,0.357093
56.106,0.357116
56.107,0.357140
56.108,0.357163
56.109,0.357187
56.110,0.357210
56.111,0.357234
56.112,0.357257
56.113,0.357281
56.114,0.357304
56.115,0.357328
56.116,0.357351
56.117,0.357375
56.118,0.357398
56.119,0.357422
56.120,0.357445
56.121,0.357469
56.122,0.357492
56.123,0.357516
56.124,0.357539
56.125,0.357563
56.126,0.357586
56.127,0.357610
56.128,0.357633
56.129,0.357657
56.130,0.357680
56.131,0.357704
56.132,0.357727
56.133,0.357751
56.134,0.357774
56.135,0.357798
56.136,0.357821
56.137,0.357845
56.138,0.357868
56.139,0.357892
56.140,0.357915
56.141,0.357939
56.142,0.357962
56.143,0.357986
56.144,0.358009
56.145,0.358033
56.146,0.358056
56.147,0.358080
56.148,0.358103
56.149,0.358127
56.150,0.358150
56.151,0.358174
56.152,0.358197
56.153,0.358221
56.154,0.358244
56.155,0.358268
56.156,0.358291
56.157,0.358315
56.158,0.358338
56.159,0.358362
56.160,0.358385
56.161,0.358409
56.162,0.358432
56.163,0.358456
56.164,0.358479
56.165,0.358503
56.166,0.358526
56.167,0.358550
56.168,0.358573
56.169,0.358597
56.170,0.358620
56.171,0.358644
56.172,0.358668
56.173,0.358691
56.174,0.358715
56.175,0.358738
56.176,0.358762
56.177,0.358785
56.178,0.358809
56.179,0.358832
56.180,0.358856
56.181,0.358879
56.182,0.358903
56.183,0.358926
56.184,0.358950
56.185,0.358973
56.186,0.358997
56.187,0.359020
56.188,0.359044
56.189,0.359067
56.190,0.359091
56.191,0.359114
56.192,0.359138
56.193,0.359161
56.194,0.359185
56.195,0.359208
56.196,0.359232
56.197,0.359255
56.198,0.359279
56.199,0.359302
56.200,0.359326
56.201,0.359349
56.202,0.359373
56.203,0.359396
56.204,0.359420
56.205,0.359443
56.206,0.359467
56.207,0.359490
56.208,0.359514
56.209,0.359537
56.210,0.359561
56.211,0.359584
56.212,0.359608
56.213,0.359631
56.214,0.359655
56.215,0.359678
56.216,0.359702
56.217,0.359725
56.218,0.359749
56.219,0.359772
56.220,0.359796
56.221,0.359819
56.222,0.359843
56.223,0.359866
56.224,0.359890
56.225,0.359913
56.226,0.359937
56.227,0.359960
56.228,0.359984
56.229,0.360007
56.230,0.360031
56.231,0.360054
56.232,0.360078
56.233,0.360101
56.234,0.360125
56.235,0.360148
56.236,0.360172
56.237,0.360195
56.238,0.360219
56.239,0.360242
56.240,0.360266
56.241,0.360289
56.242,0.360313
56.243,0.360336
56.244,0.360360
56.245,0.360383
56.246,0.360407
56.247,0.360430
