Angle,Reflectance
55.000,0.048208
55.001,0.048222
55.002,0.048236
55.003,0.048250
55.004,0.048265
55.005,0.048279
55.006,0.048293
55.007,0.048307
55.008,0.048321
55.009,0.048335
55.010,0.048349
55.011,0.048364
55.012,0.048378
55.013,0.048392
55.014,0.048406
55.015,0.048420
55.016,0.048434
55.017,0.048449
55.018,0.048463
55.019,0.048477
55.020,0.048491
55.021,0.048505
55.022,0.048520
55.023,0.048534
55.024,0.048548
55.025,0.048562
55.026,0.048576
55.027,0.048590
55.028,0.048605
55.029,0.048619
55.030,0.048633
55.031,0.048647
55.032,0.048661
55.033,0.048676
55.034,0.048690
55.035,0.048704
55.036,0.048718
55.037,0.048733
55.038,0.048747
55.039,0.048761
55.040,0.048775
55.041,0.048790
55.042,0.048804
55.043,0.048818
55.044,0.048832
55.045,0.048846
55.046,0.048861
55.047,0.048875
55.048,0.048889
55.049,0.048903
55.050,0.048918
55.051,0.048932
55.052,0.048946
55.053,0.048961
55.054,0.048975
55.055,0.048989
55.056,0.049003
55.057,0.049018
55.058,0.049032
55.059,0.049046
55.060,0.049060
55.061,0.049075
55.062,0.049089
55.063,0.049103
55.064,0.049118
55.065,0.049132
55.066,0.049146
55.067,0.049161
55.068,0.049175
55.069,0.049189
55.070,0.049203
55.071,0.049218
55.072,0.049232
55.073,0.049246
55.074,0.049261
55.075,0.049275
55.076,0.049289
55.077,0.049304
55.078,0.049318
55.079,0.049332
55.080,0.049347
55.081,0.049361
55.082,0.049375
55.083,0.049390
55.084,0.049404
55.085,0.049419
55.086,0.049433
55.087,0.049447
55.088,0.049462
55.089,0.049476
55.090,0.049490
55.091,0.049505
55.092,0.049519
55.093,0.049533
55.094,0.049548
55.095,0.049562
55.096,0.049577
55.097,0.049591
55.098,0.049605
55.099,0.049620
55.100,0.049634
55.101,0.049649
55.102,0.049663
55.103,0.049677
55.104,0.049692
55.105,0.049706
55.106,0.049721
55.107,0.049735
55.108,0.049749
55.109,0.049764
55.110,0.049778
55.111,0.049793
55.112,0.049807
55.113,0.049822
55.114,0.049836
55.115,0.049850
55.116,0.049865
55.117,0.049879
55.118,0.049894
55.119,0.049908
55.120,0.049923
55.121,0.049937
55.122,0.049951
55.123,0.049966
55.124,0.049980
55.125,0.049995
55.126,0.050009
55.127,0.050024
55.128,0.050038
55.129,0.050053
55.130,0.050067
55.131,0.050082
55.132,0.050096
55.133,0.050111
55.134,0.050125
55.135,0.050140
55.136,0.050154
55.137,0.050169
55.138,0.050183
55.139,0.050198
55.140,0.050212
55.141,0.050227
55.142,0.050241
55.143,0.050256
55.144,0.050270
55.145,0.050285
55.146,0.050299
55.147,0.050314
55.148,0.050328
55.149,0.050343
55.150,0.050357
55.151,0.050372
55.152,0.050386
55.153,0.050401
55.154,0.050415
55.155,0.050430
55.156,0.050445
55.157,0.050459
55.158,0.050474
55.159,0.050488
55.160,0.050503
55.161,0.050517
55.162,0.050532
55.163,0.050546
55.164,0.050561
55.165,0.050576
55.166,0.050590
55.167,0.050605
55.168,0.050619
55.169,0.050634
55.170,0.050648
55.171,0.050663
55.172,0.050678
55.173,0.050692
55.174,0.050707
55.175,0.050721
55.176,0.050736
55.177,0.050751
55.178,0.050765
55.179,0.050780
55.180,0.050794
55.181,0.050809
55.182,0.050824
55.183,0.050838
55.184,0.050853
55.185,0.050868
55.186,0.050882
55.187,0.050897
55.188,0.050911
55.189,0.050926
55.190,0.050941
55.191,0.050955
55.192,0.050970
55.193,0.050985
55.194,0.050999
55.195,0.051014
55.196,0.051029
55.197,0.051043
55.198,0.051058
55.199,0.051073
55.200,0.051087
55.201,0.051102
55.202,0.051117
55.203,0.051131
55.204,0.051146
55.205,0.051161
55.206,0.051175
55.207,0.051190
55.208,0.051205
55.209,0.051219
55.210,0.051234
55.211,0.051249
55.212,0.051263
55.213,0.051278
55.214,0.051293
55.215,0.051308
55.216,0.051322
55.217,0.051337
55.218,0.051352
55.219,0.051366
55.220,0.051381
55.221,0.051396
55.222,0.051411
55.223,0.051425
55.224,0.051440
55.225,0.051455
55.226,0.051470
55.227,0.051484
55.228,0.051499
55.229,0.051514
55.230,0.051528
55.231,0.051543
55.232,0.051558
55.233,0.051573
55.234,0.051588
55.235,0.051602
55.236,0.051617
55.237,0.051632
55.238,0.051647
55.239,0.051661
55.240,0.051676
55.241,0.051691
55.242,0.051706
55.243,0.051720
55.244,0.051735
55.245,0.051750
55.246,0.051765
55.247,0.051780
55.248,0.051794
55.249,0.051809
55.250,0.051824
55.251,0.051839
55.252,0.051854
55.253,0.051868
55.254,0.051883
55.255,0.051898
55.256,0.051913
55.257,0.051928
55.258,0.051943
55.259,0.051957
55.260,0.051972
55.261,0.051987
55.262,0.052002
55.263,0.052017
55.264,0.052032
55.265,0.052046
55.266,0.052061
55.267,0.052076
55.268,0.052091
55.269,0.052106
55.270,0.052121
55.271,0.052136
55.272,0.052150
55.273,0.052165
55.274,0.052180
55.275,0.052195
55.276,0.052210
55.277,0.052225
55.278,0.052240
55.279,0.052254
55.280,0.052269
55.281,0.052284
55.282,0.052299
55.283,0.052314
55.284,0.052329
55.285,0.052344
55.286,0.052359
55.287,0.052374
55.288,0.052389
55.289,0.052403
55.290,0.052418
55.291,0.052433
55.292,0.052448
55.293,0.052463
55.294,0.052478
55.295,0.052493
55.296,0.052508
55.297,0.052523
55.298,0.052538
55.299,0.052553
55.300,0.052568
55.301,0.052583
55.302,0.052598
55.303,0.052612
55.304,0.052627
55.305,0.052642
55.306,0.052657
55.307,0.052672
55.308,0.052687
55.309,0.052702
55.310,0.052717
55.311,0.052732
55.312,0.052747
55.313,0.052762
55.314,0.052777
55.315,0.052792
55.316,0.052807
55.317,0.052822
55.318,0.052837
55.319,0.052852
55.320,0.052867
55.321,0.052882
55.322,0.052897
55.323,0.052912
55.324,0.052927
55.325,0.052942
55.326,0.052957
55.327,0.052972
55.328,0.052987
55.329,0.053002
55.330,0.053017
55.331,0.053032
55.332,0.053047
55.333,0.053062
55.334,0.053077
55.335,0.053092
55.336,0.053107
55.337,0.053122
55.338,0.053137
55.339,0.053152
55.340,0.053167
55.341,0.053183
55.342,0.053198
55.343,0.053213
55.344,0.053228
55.345,0.053243
55.346,0.053258
55.347,0.053273
55.348,0.053288
55.349,0.053303
55.350,0.053318
55.351,0.053333
55.352,0.053348
55.353,0.053363
55.354,0.053378
55.355,0.053394
55.356,0.053409
55.357,0.053424
55.358,0.053439
55.359,0.053454
55.360,0.053469
55.361,0.053484
55.362,0.053499
55.363,0.053514
55.364,0.053530
55.365,0.053545
55.366,0.053560
55.367,0.053575
55.368,0.053590
55.369,0.053605
55.370,0.053620
55.371,0.053635
55.372,0.053651
55.373,0.053666
55.374,0.053681
55.375,0.053696
55.376,0.053711
55.377,0.053726
55.378,0.053741
55.379,0.053757
55.380,0.053772
55.381,0.053787
55.382,0.053802
55.383,0.053817
55.384,0.053832
55.385,0.053848
55.386,0.053863
55.387,0.053878
55.388,0.053893
55.389,0.053908
55.390,0.053924
55.391,0.053939
55.392,0.053954
55.393,0.053969
55.394,0.053984
55.395,0.054000
55.396,0.054015
55.397,0.054030
55.398,0.054045
55.399,0.054060
55.400,0.054076
55.401,0.054091
55.402,0.054106
55.403,0.054121
55.404,0.054136
55.405,0.054152
55.406,0.054167
55.407,0.054182
55.408,0.054197
55.409,0.054213
55.410,0.054228
55.411,0.054243
55.412,0.054258
55.413,0.054274
55.414,0.054289
55.415,0.054304
55.416,0.054319
55.417,0.054335
55.418,0.054350
55.419,0.054365
55.420,0.054380
55.421,0.054396
55.422,0.054411
55.423,0.054426
55.424,0.054442
55.425,0.054457
55.426,0.054472
55.427,0.054487
55.428,0.054503
55.429,0.054518
55.430,0.054533
55.431,0.054549
55.432,0.054564
55.433,0.054579
55.434,0.054595
55.435,0.054610
55.436,0.054625
55.437,0.054641
55.438,0.054656
55.439,0.054671
55.440,0.054687
55.441,0.054702
55.442,0.054717
55.443,0.054733
55.444,0.054748
55.445,0.054763
55.446,0.054779
55.447,0.054794
55.448,0.054809
55.449,0.054825
55.450,0.054840
55.451,0.054855
55.452,0.054871
55.453,0.054886
55.454,0.054901
55.455,0.054917
55.456,0.054932
55.457,0.054948
55.458,0.054963
55.459,0.054978
55.460,0.054994
55.461,0.055009
55.462,0.055024
55.463,0.055040
55.464,0.055055
55.465,0.055071
55.466,0.055086
55.467,0.055101
55.468,0.055117
55.469,0.055132
55.470,0.055148
55.471,0.055163
55.472,0.055178
55.473,0.055194
55.474,0.055209
55.475,0.055225
55.476,0.055240
55.477,0.055256
55.478,0.055271
55.479,0.055286
55.480,0.055302
55.481,0.055317
55.482,0.055333
55.483,0.055348
55.484,0.055364
55.485,0.055379
55.486,0.055395
55.487,0.055410
55.488,0.055426
55.489,0.055441
55.490,0.055456
55.491,0.055472
55.492,0.055487
55.493,0.055503
55.494,0.055518
55.495,0.055534
55.496,0.055549
55.497,0.055565
55.498,0.055580
55.499,0.055596
55.500,0.055611
55.501,0.055627
55.502,0.055642
55.503,0.055658
55.504,0.055673
55.505,0.055689
55.506,0.055704
55.507,0.055720
55.508,0.055735
55.509,0.055751
55.510,0.055766
55.511,0.055782
55.512,0.055797
55.513,0.055813
55.514,0.055829
55.515,0.055844
55.516,0.055860
55.517,0.055875
55.518,0.055891
55.519,0.055906
55.520,0.055922
55.521,0.055937
55.522,0.055953
55.523,0.055968
55.524,0.055984
55.525,0.056000
55.526,0.056015
55.527,0.056031
55.528,0.056046
55.529,0.056062
55.530,0.056077
55.531,0.056093
55.532,0.056109
55.533,0.056124
55.534,0.056140
55.535,0.056155
55.536,0.056171
55.537,0.056187
55.538,0.056202
55.539,0.056218
55.540,0.056233
55.541,0.056249
55.542,0.056265
55.543,0.056280
55.544,0.056296
55.545,0.056311
55.546,0.056327
55.547,0.056343
55.548,0.056358
55.549,0.056374
55.550,0.056390
55.551,0.056405
55.552,0.056421
55.553,0.056437
55.554,0.056452
55.555,0.056468
55.556,0.056484
55.557,0.056499
55.558,0.056515
55.559,0.056530
55.560,0.056546
55.561,0.056562
55.562,0.056577
55.563,0.056593
55.564,0.056609
55.565,0.056625
55.566,0.056640
55.567,0.056656
55.568,0.056672
55.569,0.056687
55.570,0.056703
55.571,0.056719
55.572,0.056734
55.573,0.056750
55.574,0.056766
55.575,0.056781
55.576,0.056797
55.577,0.056813
55.578,0.056829
55.579,0.056844
55.580,0.056860
55.581,0.056876
55.582,0.056891
55.583,0.056907
55.584,0.056923
55.585,0.056939
55.586,0.056954
55.587,0.056970
55.588,0.056986
55.589,0.057002
55.590,0.057017
55.591,0.057033
55.592,0.057049
55.593,0.057065
55.594,0.057080
55.595,0.057096
55.596,0.057112
55.597,0.057128
55.598,0.057143
55.599,0.057159
55.600,0.057175
55.601,0.057191
55.602,0.057207
55.603,0.057222
55.604,0.057238
55.605,0.057254
55.606,0.057270
55.607,0.057286
55.608,0.057301
55.609,0.057317
55.610,0.057333
55.611,0.057349
55.612,0.057365
55.613,0.057380
55.614,0.057396
55.615,0.057412
55.616,0.057428
55.617,0.057444
55.618,0.057460
55.619,0.057475
55.620,0.057491
55.621,0.057507
55.622,0.057523
55.623,0.057539
55.624,0.057555
55.625,0.057570
55.626,0.057586
55.627,0.057602
55.628,0.057618
55.629,0.057634
55.630,0.057650
55.631,0.057666
55.632,0.057681
55.633,0.057697
55.634,0.057713
55.635,0.057729
55.636,0.057745
55.637,0.057761
55.638,0.057777
55.639,0.057793
55.640,0.057808
55.641,0.057824
55.642,0.057840
55.643,0.057856
55.644,0.057872
55.645,0.057888
55.646,0.057904
55.647,0.057920
55.648,0.057936
55.649,0.057952
55.650,0.057968
55.651,0.057983
55.652,0.057999
55.653,0.058015
55.654,0.058031
55.655,0.058047
55.656,0.058063
55.657,0.058079
55.658,0.058095
55.659,0.058111
55.660,0.058127
55.661,0.058143
55.662,0.058159
55.663,0.058175
55.664,0.058191
55.665,0.058207
55.666,0.058223
55.667,0.058239
55.668,0.058255
55.669,0.058271
55.670,0.058287
55.671,0.058303
55.672,0.058318
55.673,0.058334
55.674,0.058350
55.675,0.058366
55.676,0.058382
55.677,0.058398
55.678,0.058414
55.679,0.058430
55.680,0.058446
55.681,0.058462
55.682,0.058478
55.683,0.058494
55.684,0.058511
55.685,0.058527
55.686,0.058543
55.687,0.058559
55.688,0.058575
55.689,0.058591
55.690,0.058607
55.691,0.058623
55.692,0.058639
55.693,0.058655
55.694,0.058671
55.695,0.058687
55.696,0.058703
55.697,0.058719
55.698,0.058735
55.699,0.058751
55.700,0.058767
55.701,0.058783
55.702,0.058799
55.703,0.058815
55.704,0.058831
55.705,0.058848
55.706,0.058864
55.707,0.058880
55.708,0.058896
55.709,0.058912
55.710,0.058928
55.711,0.058944
55.712,0.058960
55.713,0.058976
55.714,0.058992
55.715,0.059008
55.716,0.059025
55.717,0.059041
55.718,0.059057
55.719,0.059073
55.720,0.059089
55.721,0.059105
55.722,0.059121
55.723,0.059137
55.724,0.059154
55.725,0.059170
55.726,0.059186
55.727,0.059202
55.728,0.059218
55.729,0.059234
55.730,0.059250
55.731,0.059267
55.732,0.059283
55.733,0.059299
55.734,0.059315
55.735,0.059331
55.736,0.059347
55.737,0.059363
55.738,0.059380
55.739,0.059396
55.740,0.059412
55.741,0.059428
55.742,0.059444
55.743,0.059461
55.744,0.059477
55.745,0.059493
55.746,0.059509
55.747,0.059525
55.748,0.059542
55.749,0.059558
55.750,0.059574
55.751,0.059590
55.752,0.059606
55.753,0.059623
55.754,0.059639
55.755,0.059655
55.756,0.059671
55.757,0.059687
55.758,0.059704
55.759,0.059720
55.760,0.059736
55.761,0.059752
55.762,0.059769
55.763,0.059785
55.764,0.059801
55.765,0.059817
55.766,0.059834
55.767,0.059850
55.768,0.059866
55.769,0.059882
55.770,0.059899
55.771,0.059915
55.772,0.059931
55.773,0.059947
55.774,0.059964
55.775,0.059980
55.776,0.059996
55.777,0.060013
55.778,0.060029
55.779,0.060045
55.780,0.060061
55.781,0.060078
55.782,0.060094
55.783,0.060110
55.784,0.060127
55.785,0.060143
55.786,0.060159
55.787,0.060176
55.788,0.060192
55.789,0.060208
55.790,0.060225
55.791,0.060241
55.792,0.060257
55.793,0.060273
55.794,0.060290
55.795,0.060306
55.796,0.060322
55.797,0.060339
55.798,0.060355
55.799,0.060372
55.800,0.060388
55.801,0.060404
55.802,0.060421
55.803,0.060437
55.804,0.060453
55.805,0.060470
55.806,0.060486
55.807,0.060502
55.808,0.060519
55.809,0.060535
55.810,0.060552
55.811,0.060568
55.812,0.060584
55.813,0.060601
55.814,0.060617
55.815,0.060633
55.816,0.060650
55.817,0.060666
55.818,0.060683
55.819,0.060699
55.820,0.060715
55.821,0.060732
55.822,0.060748
55.823,0.060765
55.824,0.060781
55.825,0.060798
55.826,0.060814
55.827,0.060830
55.828,0.060847
55.829,0.060863
55.830,0.060880
55.831,0.060896
55.832,0.060913
55.833,0.060929
55.834,0.060946
55.835,0.060962
55.836,0.060978
55.837,0.060995
55.838,0.061011
55.839,0.061028
55.840,0.061044
55.841,0.061061
55.842,0.061077
55.843,0.061094
55.844,0.061110
55.845,0.061127
55.846,0.061143
55.847,0.061160
55.848,0.061176
55.849,0.061193
55.850,0.061209
55.851,0.061226
55.852,0.061242
55.853,0.061259
55.854,0.061275
55.855,0.061292
55.856,0.061308
55.857,0.061325
55.858,0.061341
55.859,0.061358
55.860,0.061374
55.861,0.061391
55.862,0.061407
55.863,0.061424
55.864,0.061440
55.865,0.061457
55.866,0.061473
55.867,0.061490
55.868,0.061506
55.869,0.061523
55.870,0.061540
55.871,0.061556
55.872,0.061573
55.873,0.061589
55.874,0.061606
55.875,0.061622
55.876,0.061639
55.877,0.061656
55.878,0.061672
55.879,0.061689
55.880,0.061705
55.881,0.061722
55.882,0.061738
55.883,0.061755
55.884,0.061772
55.885,0.061788
55.886,0.061805
55.887,0.061821
55.888,0.061838
55.889,0.061855
55.890,0.061871
55.891,0.061888
55.892,0.061905
55.893,0.061921
55.894,0.061938
55.895,0.061954
55.896,0.061971
55.897,0.061988
55.898,0.062004
55.899,0.062021
55.900,0.062038
55.901,0.062054
55.902,0.062071
55.903,0.062087
55.904,0.062104
55.905,0.062121
55.906,0.062137
55.907,0.062154
55.908,0.062171
55.909,0.062187
55.910,0.062204
55.911,0.062221
55.912,0.062237
55.913,0.062254
55.914,0.062271
55.915,0.062288
55.916,0.062304
55.917,0.062321
55.918,0.062338
55.919,0.062354
55.920,0.062371
55.921,0.062388
55.922,0.062404
55.923,0.062421
55.924,0.062438
55.925,0.062455
55.926,0.062471
55.927,0.062488
55.928,0.062505
55.929,0.062521
55.930,0.062538
55.931,0.062555
55.932,0.062572
55.933,0.062588
55.934,0.062605
55.935,0.062622
55.936,0.062639
55.937,0.062655
55.938,0.062672
55.939,0.062689
55.940,0.062706
55.941,0.062722
55.942,0.062739
55.943,0.062756
55.944,0.062773
55.945,0.062789
55.946,0.062806
55.947,0.062823
55.948,0.062840
55.949,0.062857
55.950,0.062873
55.951,0.062890
55.952,0.062907
55.953,0.062924
55.954,0.062941
55.955,0.062957
55.956,0.062974
55.957,0.062991
55.958,0.063008
55.959,0.063025
55.960,0.063041
55.961,0.063058
55.962,0.063075
55.963,0.063092
55.964,0.063109
55.965,0.063126
55.966,0.063142
55.967,0.063159
55.968,0.063176
55.969,0.063193
55.970,0.063210
55.971,0.063227
55.972,0.063243
55.973,0.063260
55.974,0.063277
55.975,0.063294
55.976,0.063311
55.977,0.063328
55.978,0.063345
55.979,0.063361
55.980,0.063378
55.981,0.063395
55.982,0.063412
55.983,0.063429
55.984,0.063446
55.985,0.063463
55.986,0.063480
55.987,0.063497
55.988,0.063513
55.989,0.063530
55.990,0.063547
55.991,0.063564
55.992,0.063581
55.993,0.063598
55.994,0.063615
55.995,0.063632
55.996,0.063649
55.997,0.063666
55.998,0.063683
55.999,0.063700
56.000,0.063716
56.001,0.063733
56.002,0.063750
56.003,0.063767
56.004,0.063784
56.005,0.063801
56.006,0.063818
56.007,0.063835
56.008,0.063852
56.009,0.063869
56.010,0.063886
56.011,0.063903
56.012,0.063920
56.013,0.063937
56.014,0.063954
56.015,0.063971
56.016,0.063988
56.017,0.064005
56.018,0.064022
56.019,0.064039
56.020,0.064056
56.021,0.064073
56.022,0.064090
56.023,0.064107
56.024,0.064124
56.025,0.064141
56.026,0.064158
56.027,0.064175
56.028,0.064192
56.029,0.064209
56.030,0.064226
56.031,0.064243
56.032,0.064260
56.033,0.064277
56.034,0.064294
56.035,0.064311
56.036,0.064328
56.037,0.064345
56.038,0.064362
56.039,0.064379
56.040,0.064396
56.041,0.064413
56.042,0.064430
56.043,0.064448
56.044,0.064465
56.045,0.064482
56.046,0.064499
56.047,0.064516
56.048,0.064533
56.049,0.064550
56.050,0.064567
56.051,0.064584
56.052,0.064601
56.053,0.064618
56.054,0.064635
56.055,0.064653
56.056,0.064670
56.057,0.064687
56.058,0.064704
56.059,0.064721
56.060,0.064738
56.061,0.064755
56.062,0.064772
56.063,0.064789
56.064,0.064807
56.065,0.064824
56.066,0.064841
56.067,0.064858
56.068,0.064875
56.069,0.064892
56.070,0.064909
56.071,0.064926
56.072,0.064944
56.073,0.064961
56.074,0.064978
56.075,0.064995
56.076,0.065012
56.077,0.065029
56.078,0.065047
56.079,0.065064
56.080,0.065081
56.081,0.065098
56.082,0.065115
56.083,0.065132
56.084,0.065150
56.085,0.065167
56.086,0.065184
56.087,0.065201
56.088,0.065218
56.089,0.065236
56.090,0.065253
56.091,0.065270
56.092,0.065287
56.093,0.065304
56.094,0.065322
56.095,0.065339
56.096,0.065356
56.097,0.065373
56.098,0.065391
56.099,0.065408
56.100,0.065425
56.101,0.065442
56.102,0.065460
56.103,0.065477
56.104,0.065494
56.105,0.065511
56.106,0.065529
56.107,0.065546
56.108,0.065563
56.109,0.065580
56.110,0.065598
56.111,0.065615
56.112,0.065632
56.113,0.065649
56.114,0.065667
56.115,0.065684
56.116,0.065701
56.117,0.065718
56.118,0.065736
56.119,0.065753
56.120,0.065770
56.121,0.065788
56.122,0.065805
56.123,0.065822
56.124,0.065840
56.125,0.065857
56.126,0.065874
56.127,0.065891
56.128,0.065909
56.129,0.065926
56.130,0.065943
56.131,0.065961
56.132,0.065978
56.133,0.065995
56.134,0.066013
56.135,0.066030
56.136,0.066047
56.137,0.066065
56.138,0.066082
56.139,0.066099
56.140,0.066117
56.141,0.066134
56.142,0.066152
56.143,0.066169
56.144,0.066186
56.145,0.066204
56.146,0.066221
56.147,0.066238
56.148,0.066256
56.149,0.066273
56.150,0.066291
56.151,0.066308
56.152,0.066325
56.153,0.066343
56.154,0.066360
56.155,0.066378
56.156,0.066395
56.157,0.066412
56.158,0.066430
56.159,0.066447
56.160,0.066465
56.161,0.066482
56.162,0.066499
56.163,0.066517
56.164,0.066534
56.165,0.066552
56.166,0.066569
56.167,0.066587
56.168,0.066604
56.169,0.066621
56.170,0.066639
56.171,0.066656
56.172,0.066674
56.173,0.066691
56.174,0.066709
56.175,0.066726
56.176,0.066744
56.177,0.066761
56.178,0.066779
56.179,0.066796
56.180,0.066813
56.181,0.066831
56.182,0.066848
56.183,0.066866
56.184,0.066883
56.185,0.066901
56.186,0.066918
56.187,0.066936
56.188,0.066953
56.189,0.066971
56.190,0.066988
56.191,0.067006
56.192,0.067023
56.193,0.067041
56.194,0.067058
56.195,0.067076
56.196,0.067093
56.197,0.067111
56.198,0.067129
56.199,0.067146
56.200,0.067164
56.201,0.067181
56.202,0.067199
56.203,0.067216
56.204,0.067234
56.205,0.067251
56.206,0.067269
56.207,0.067286
56.208,0.067304
56.209,0.067322
56.210,0.067339
56.211,0.067357
56.212,0.067374
56.213,0.067392
56.214,0.067409
56.215,0.067427
56.216,0.067445
56.217,0.067462
56.218,0.067480
56.219,0.067497
56.220,0.067515
56.221,0.067533
56.222,0.067550
56.223,0.067568
56.224,0.067585
56.225,0.067603
56.226,0.067621
56.227,0.067638
56.228,0.067656
56.229,0.067673
56.230,0.067691
56.231,0.067709
56.232,0.067726
56.233,0.067744
56.234,0.067762
56.235,0.067779
56.236,0.067797
56.237,0.067815
56.238,0.067832
56.239,0.067850
56.240,0.067868
56.241,0.067885
56.242,0.067903
56.243,0.067921
56.244,0.067938
56.245,0.067956
56.246,0.067974
56.247,0.067991
