Angle,Reflectance
55.000,0.005252
55.001,0.005258
55.002,0.005263
55.003,0.005269
55.004,0.005274
55.005,0.005280
55.006,0.005285
55.007,0.005291
55.008,0.005296
55.009,0.005302
55.010,0.005308
55.011,0.005313
55.012,0.005319
55.013,0.005324
55.014,0.005330
55.015,0.005335
55.016,0.005341
55.017,0.005347
55.018,0.005352
55.019,0.005358
55.020,0.005363
55.021,0.005369
55.022,0.005375
55.023,0.005380
55.024,0.005386
55.025,0.005391
55.026,0.005397
55.027,0.005403
55.028,0.005408
55.029,0.005414
55.030,0.005420
55.031,0.005425
55.032,0.005431
55.033,0.005437
55.034,0.005442
55.035,0.005448
55.036,0.005454
55.037,0.005459
55.038,0.005465
55.039,0.005471
55.040,0.005476
55.041,0.005482
55.042,0.005488
55.043,0.005494
55.044,0.005499
55.045,0.005505
55.046,0.005511
55.047,0.005516
55.048,0.005522
55.049,0.005528
55.050,0.005534
55.051,0.005539
55.052,0.005545
55.053,0.005551
55.054,0.005557
55.055,0.005562
55.056,0.005568
55.057,0.005574
55.058,0.005580
55.059,0.005586
55.060,0.005591
55.061,0.005597
55.062,0.005603
55.063,0.005609
55.064,0.005615
55.065,0.005620
55.066,0.005626
55.067,0.005632
55.068,0.005638
55.069,0.005644
55.070,0.005649
55.071,0.005655
55.072,0.005661
55.073,0.005667
55.074,0.005673
55.075,0.005679
55.076,0.005685
55.077,0.005690
55.078,0.005696
55.079,0.005702
55.080,0.005708
55.081,0.005714
55.082,0.005720
55.083,0.005726
55.084,0.005732
55.085,0.005737
55.086,0.005743
55.087,0.005749
55.088,0.005755
55.089,0.005761
55.090,0.005767
55.091,0.005773
55.092,0.005779
55.093,0.005785
55.094,0.005791
55.095,0.005797
55.096,0.005803
55.097,0.005809
55.098,0.005815
55.099,0.005821
55.100,0.005827
55.101,0.005833
55.102,0.005839
55.103,0.005845
55.104,0.005851
55.105,0.005857
55.106,0.005863
55.107,0.005869
55.108,0.005875
55.109,0.005881
55.110,0.005887
55.111,0.005893
55.112,0.005899
55.113,0.005905
55.114,0.005911
55.115,0.005917
55.116,0.005923
55.117,0.005929
55.118,0.005935
55.119,0.005941
55.120,0.005947
55.121,0.005953
55.122,0.005959
55.123,0.005965
55.124,0.005971
55.125,0.005978
55.126,0.005984
55.127,0.005990
55.128,0.005996
55.129,0.006002
55.130,0.006008
55.131,0.006014
55.132,0.006020
55.133,0.006026
55.134,0.006033
55.135,0.006039
55.136,0.006045
55.137,0.006051
55.138,0.006057
55.139,0.006063
55.140,0.006070
55.141,0.006076
55.142,0.006082
55.143,0.006088
55.144,0.006094
55.145,0.006100
55.146,0.006107
55.147,0.006113
55.148,0.006119
55.149,0.006125
55.150,0.006131
55.151,0.006138
55.152,0.006144
55.153,0.006150
55.154,0.006156
55.155,0.006163
55.156,0.006169
55.157,0.006175
55.158,0.006181
55.159,0.006188
55.160,0.006194
55.161,0.006200
55.162,0.006206
55.163,0.006213
55.164,0.006219
55.165,0.006225
55.166,0.006232
55.167,0.006238
55.168,0.006244
55.169,0.006250
55.170,0.006257
55.171,0.006263
55.172,0.006269
55.173,0.006276
55.174,0.006282
55.175,0.006288
55.176,0.006295
55.177,0.006301
55.178,0.006307
55.179,0.006314
55.180,0.006320
55.181,0.006327
55.182,0.006333
55.183,0.006339
55.184,0.006346
55.185,0.006352
55.186,0.006358
55.187,0.006365
55.188,0.006371
55.189,0.006378
55.190,0.006384
55.191,0.006390
55.192,0.006397
55.193,0.006403
55.194,0.006410
55.195,0.006416
55.196,0.006423
55.197,0.006429
55.198,0.006436
55.199,0.006442
55.200,0.006448
55.201,0.006455
55.202,0.006461
55.203,0.006468
55.204,0.006474
55.205,0.006481
55.206,0.006487
55.207,0.006494
55.208,0.006500
55.209,0.006507
55.210,0.006513
55.211,0.006520
55.212,0.006526
55.213,0.006533
55.214,0.006539
55.215,0.006546
55.216,0.006553
55.217,0.006559
55.218,0.006566
55.219,0.006572
55.220,0.006579
55.221,0.006585
55.222,0.006592
55.223,0.006598
55.224,0.006605
55.225,0.006612
55.226,0.006618
55.227,0.006625
55.228,0.006631
55.229,0.006638
55.230,0.006645
55.231,0.006651
55.232,0.006658
55.233,0.006664
55.234,0.006671
55.235,0.006678
55.236,0.006684
55.237,0.006691
55.238,0.006698
55.239,0.006704
55.240,0.006711
55.241,0.006718
55.242,0.006724
55.243,0.006731
55.244,0.006738
55.245,0.006744
55.246,0.006751
55.247,0.006758
55.248,0.006765
55.249,0.006771
55.250,0.006778
55.251,0.006785
55.252,0.006791
55.253,0.006798
55.254,0.006805
55.255,0.006812
55.256,0.006818
55.257,0.006825
55.258,0.006832
55.259,0.006839
55.260,0.006845
55.261,0.006852
55.262,0.006859
55.263,0.006866
55.264,0.006872
55.265,0.006879
55.266,0.006886
55.267,0.006893
55.268,0.006900
55.269,0.006906
55.270,0.006913
55.271,0.006920
55.272,0.006927
55.273,0.006934
55.274,0.006941
55.275,0.006947
55.276,0.006954
55.277,0.006961
55.278,0.006968
55.279,0.006975
55.280,0.006982
55.281,0.006989
55.282,0.006996
55.283,0.007002
55.284,0.007009
55.285,0.007016
55.286,0.007023
55.287,0.007030
55.288,0.007037
55.289,0.007044
55.290,0.007051
55.291,0.007058
55.292,0.007065
55.293,0.007072
55.294,0.007079
55.295,0.007085
55.296,0.007092
55.297,0.007099
55.298,0.007106
55.299,0.007113
55.300,0.007120
55.301,0.007127
55.302,0.007134
55.303,0.007141
55.304,0.007148
55.305,0.007155
55.306,0.007162
55.307,0.007169
55.308,0.007176
55.309,0.007183
55.310,0.007190
55.311,0.007197
55.312,0.007204
55.313,0.007211
55.314,0.007218
55.315,0.007226
55.316,0.007233
55.317,0.007240
55.318,0.007247
55.319,0.007254
55.320,0.007261
55.321,0.007268
55.322,0.007275
55.323,0.007282
55.324,0.007289
55.325,0.007296
55.326,0.007303
55.327,0.007311
55.328,0.007318
55.329,0.007325
55.330,0.007332
55.331,0.007339
55.332,0.007346
55.333,0.007353
55.334,0.007361
55.335,0.007368
55.336,0.007375
55.337,0.007382
55.338,0.007389
55.339,0.007396
55.340,0.007404
55.341,0.007411
55.342,0.007418
55.343,0.007425
55.344,0.007432
55.345,0.007440
55.346,0.007447
55.347,0.007454
55.348,0.007461
55.349,0.007469
55.350,0.007476
55.351,0.007483
55.352,0.007490
55.353,0.007498
55.354,0.007505
55.355,0.007512
55.356,0.007519
55.357,0.007527
55.358,0.007534
55.359,0.007541
55.360,0.007549
55.361,0.007556
55.362,0.007563
55.363,0.007570
55.364,0.007578
55.365,0.007585
55.366,0.007592
55.367,0.007600
55.368,0.007607
55.369,0.007614
55.370,0.007622
55.371,0.007629
55.372,0.007636
55.373,0.007644
55.374,0.007651
55.375,0.007659
55.376,0.007666
55.377,0.007673
55.378,0.007681
55.379,0.007688
55.380,0.007696
55.381,0.007703
55.382,0.007710
55.383,0.007718
55.384,0.007725
55.385,0.007733
55.386,0.007740
55.387,0.007748
55.388,0.007755
55.389,0.007762
55.390,0.007770
55.391,0.007777
55.392,0.007785
55.393,0.007792
55.394,0.007800
55.395,0.007807
55.396,0.007815
55.397,0.007822
55.398,0.007830
55.399,0.007837
55.400,0.007845
55.401,0.007852
55.402,0.007860
55.403,0.007867
55.404,0.007875
55.405,0.007883
55.406,0.007890
55.407,0.007898
55.408,0.007905
55.409,0.007913
55.410,0.007920
55.411,0.007928
55.412,0.007935
55.413,0.007943
55.414,0.007951
55.415,0.007958
55.416,0.007966
55.417,0.007973
55.418,0.007981
55.419,0.007989
55.420,0.007996
55.421,0.008004
55.422,0.008012
55.423,0.008019
55.424,0.008027
55.425,0.008035
55.426,0.008042
55.427,0.008050
55.428,0.008058
55.429,0.008065
55.430,0.008073
55.431,0.008081
55.432,0.008088
55.433,0.008096
55.434,0.008104
55.435,0.008111
55.436,0.008119
55.437,0.008127
55.438,0.008135
55.439,0.008142
55.440,0.008150
55.441,0.008158
55.442,0.008166
55.443,0.008173
55.444,0.008181
55.445,0.008189
55.446,0.008197
55.447,0.008204
55.448,0.008212
55.449,0.008220
55.450,0.008228
55.451,0.008236
55.452,0.008243
55.453,0.008251
55.454,0.008259
55.455,0.008267
55.456,0.008275
55.457,0.008283
55.458,0.008290
55.459,0.008298
55.460,0.008306
55.461,0.008314
55.462,0.008322
55.463,0.008330
55.464,0.008338
55.465,0.008345
55.466,0.008353
55.467,0.008361
55.468,0.008369
55.469,0.008377
55.470,0.008385
55.471,0.008393
55.472,0.008401
55.473,0.008409
55.474,0.008417
55.475,0.008425
55.476,0.008433
55.477,0.008440
55.478,0.008448
55.479,0.008456
55.480,0.008464
55.481,0.008472
55.482,0.008480
55.483,0.008488
55.484,0.008496
55.485,0.008504
55.486,0.008512
55.487,0.008520
55.488,0.008528
55.489,0.008536
55.490,0.008544
55.491,0.008552
55.492,0.008560
55.493,0.008568
55.494,0.008577
55.495,0.008585
55.496,0.008593
55.497,0.008601
55.498,0.008609
55.499,0.008617
55.500,0.008625
55.501,0.008633
55.502,0.008641
55.503,0.008649
55.504,0.008657
55.505,0.008665
55.506,0.008674
55.507,0.008682
55.508,0.008690
55.509,0.008698
55.510,0.008706
55.511,0.008714
55.512,0.008722
55.513,0.008731
55.514,0.008739
55.515,0.008747
55.516,0.008755
55.517,0.008763
55.518,0.008771
55.519,0.008780
55.520,0.008788
55.521,0.008796
55.522,0.008804
55.523,0.008813
55.524,0.008821
55.525,0.008829
55.526,0.008837
55.527,0.008845
55.528,0.008854
55.529,0.008862
55.530,0.008870
55.531,0.008879
55.532,0.008887
55.533,0.008895
55.534,0.008903
55.535,0.008912
55.536,0.008920
55.537,0.008928
55.538,0.008937
55.539,0.008945
55.540,0.008953
55.541,0.008962
55.542,0.008970
55.543,0.008978
55.544,0.008987
55.545,0.008995
55.546,0.009003
55.547,0.009012
55.548,0.009020
55.549,0.009028
55.550,0.009037
55.551,0.009045
55.552,0.009054
55.553,0.009062
55.554,0.009070
55.555,0.009079
55.556,0.009087
55.557,0.009096
55.558,0.009104
55.559,0.009112
55.560,0.009121
55.561,0.009129
55.562,0.009138
55.563,0.009146
55.564,0.009155
55.565,0.009163
55.566,0.009172
55.567,0.009180
55.568,0.009189
55.569,0.009197
55.570,0.009206
55.571,0.009214
55.572,0.009223
55.573,0.009231
55.574,0.009240
55.575,0.009248
55.576,0.009257
55.577,0.009265
55.578,0.009274
55.579,0.009282
55.580,0.009291
55.581,0.009300
55.582,0.009308
55.583,0.009317
55.584,0.009325
55.585,0.009334
55.586,0.009342
55.587,0.009351
55.588,0.009360
55.589,0.009368
55.590,0.009377
55.591,0.009386
55.592,0.009394
55.593,0.009403
55.594,0.009411
55.595,0.009420
55.596,0.009429
55.597,0.009437
55.598,0.009446
55.599,0.009455
55.600,0.009463
55.601,0.009472
55.602,0.009481
55.603,0.009490
55.604,0.009498
55.605,0.009507
55.606,0.009516
55.607,0.009524
55.608,0.009533
55.609,0.009542
55.610,0.009551
55.611,0.009559
55.612,0.009568
55.613,0.009577
55.614,0.009586
55.615,0.009594
55.616,0.009603
55.617,0.009612
55.618,0.009621
55.619,0.009630
55.620,0.009638
55.621,0.009647
55.622,0.009656
55.623,0.009665
55.624,0.009674
55.625,0.009683
55.626,0.009691
55.627,0.009700
55.628,0.009709
55.629,0.009718
55.630,0.009727
55.631,0.009736
55.632,0.009745
55.633,0.009754
55.634,0.009762
55.635,0.009771
55.636,0.009780
55.637,0.009789
55.638,0.009798
55.639,0.009807
55.640,0.009816
55.641,0.009825
55.642,0.009834
55.643,0.009843
55.644,0.009852
55.645,0.009861
55.646,0.009870
55.647,0.009879
55.648,0.009888
55.649,0.009897
55.650,0.009906
55.651,0.009915
55.652,0.009924
55.653,0.009933
55.654,0.009942
55.655,0.009951
55.656,0.009960
55.657,0.009969
55.658,0.009978
55.659,0.009987
55.660,0.009996
55.661,0.010005
55.662,0.010014
55.663,0.010023
55.664,0.010032
55.665,0.010041
55.666,0.010050
55.667,0.010059
55.668,0.010069
55.669,0.010078
55.670,0.010087
55.671,0.010096
55.672,0.010105
55.673,0.010114
55.674,0.010123
55.675,0.010133
55.676,0.010142
55.677,0.010151
55.678,0.010160
55.679,0.010169
55.680,0.010178
55.681,0.010188
55.682,0.010197
55.683,0.010206
55.684,0.010215
55.685,0.010224
55.686,0.010234
55.687,0.010243
55.688,0.010252
55.689,0.010261
55.690,0.010271
55.691,0.010280
55.692,0.010289
55.693,0.010298
55.694,0.010308
55.695,0.010317
55.696,0.010326
55.697,0.010335
55.698,0.010345
55.699,0.010354
55.700,0.010363
55.701,0.010373
55.702,0.010382
55.703,0.010391
55.704,0.010401
55.705,0.010410
55.706,0.010419
55.707,0.010429
55.708,0.010438
55.709,0.010448
55.710,0.010457
55.711,0.010466
55.712,0.010476
55.713,0.010485
55.714,0.010494
55.715,0.010504
55.716,0.010513
55.717,0.010523
55.718,0.010532
55.719,0.010542
55.720,0.010551
55.721,0.010560
55.722,0.010570
55.723,0.010579
55.724,0.010589
55.725,0.010598
55.726,0.010608
55.727,0.010617
55.728,0.010627
55.729,0.010636
55.730,0.010646
55.731,0.010655
55.732,0.010665
55.733,0.010674
55.734,0.010684
55.735,0.010693
55.736,0.010703
55.737,0.010713
55.738,0.010722
55.739,0.010732
55.740,0.010741
55.741,0.010751
55.742,0.010760
55.743,0.010770
55.744,0.010780
55.745,0.010789
55.746,0.010799
55.747,0.010808
55.748,0.010818
55.749,0.010828
55.750,0.010837
55.751,0.010847
55.752,0.010857
55.753,0.010866
55.754,0.010876
55.755,0.010886
55.756,0.010895
55.757,0.010905
55.758,0.010915
55.759,0.010924
55.760,0.010934
55.761,0.010944
55.762,0.010953
55.763,0.010963
55.764,0.010973
55.765,0.010983
55.766,0.010992
55.767,0.011002
55.768,0.011012
55.769,0.011022
55.770,0.011031
55.771,0.011041
55.772,0.011051
55.773,0.011061
55.774,0.011071
55.775,0.011080
55.776,0.011090
55.777,0.011100
55.778,0.011110
55.779,0.011120
55.780,0.011130
55.781,0.011139
55.782,0.011149
55.783,0.011159
55.784,0.011169
55.785,0.011179
55.786,0.011189
55.787,0.011199
55.788,0.011208
55.789,0.011218
55.790,0.011228
55.791,0.011238
55.792,0.011248
55.793,0.011258
55.794,0.011268
55.795,0.011278
55.796,0.011288
55.797,0.011298
55.798,0.011308
55.799,0.011318
55.800,0.011328
55.801,0.011338
55.802,0.011348
55.803,0.011358
55.804,0.011368
55.805,0.011378
55.806,0.011388
55.807,0.011398
55.808,0.011408
55.809,0.011418
55.810,0.011428
55.811,0.011438
55.812,0.011448
55.813,0.011458
55.814,0.011468
55.815,0.011478
55.816,0.011488
55.817,0.011498
55.818,0.011508
55.819,0.011518
55.820,0.011529
55.821,0.011539
55.822,0.011549
55.823,0.011559
55.824,0.011569
55.825,0.011579
55.826,0.011589
55.827,0.011600
55.828,0.011610
55.829,0.011620
55.830,0.011630
55.831,0.011640
55.832,0.011650
55.833,0.011661
55.834,0.011671
55.835,0.011681
55.836,0.011691
55.837,0.011701
55.838,0.011712
55.839,0.011722
55.840,0.011732
55.841,0.011742
55.842,0.011753
55.843,0.011763
55.844,0.011773
55.845,0.011783
55.846,0.011794
55.847,0.011804
55.848,0.011814
55.849,0.011825
55.850,0.011835
55.851,0.011845
55.852,0.011856
55.853,0.011866
55.854,0.011876
55.855,0.011887
55.856,0.011897
55.857,0.011907
55.858,0.011918
55.859,0.011928
55.860,0.011938
55.861,0.011949
55.862,0.011959
55.863,0.011970
55.864,0.011980
55.865,0.011991
55.866,0.012001
55.867,0.012011
55.868,0.012022
55.869,0.012032
55.870,0.012043
55.871,0.012053
55.872,0.012064
55.873,0.012074
55.874,0.012085
55.875,0.012095
55.876,0.012106
55.877,0.012116
55.878,0.012127
55.879,0.012137
55.880,0.012148
55.881,0.012158
55.882,0.012169
55.883,0.012179
55.884,0.012190
55.885,0.012200
55.886,0.012211
55.887,0.012221
55.888,0.012232
55.889,0.012243
55.890,0.012253
55.891,0.012264
55.892,0.012274
55.893,0.012285
55.894,0.012296
55.895,0.012306
55.896,0.012317
55.897,0.012328
55.898,0.012338
55.899,0.012349
55.900,0.012360
55.901,0.012370
55.902,0.012381
55.903,0.012392
55.904,0.012402
55.905,0.012413
55.906,0.012424
55.907,0.012434
55.908,0.012445
55.909,0.012456
55.910,0.012467
55.911,0.012477
55.912,0.012488
55.913,0.012499
55.914,0.012510
55.915,0.012520
55.916,0.012531
55.917,0.012542
55.918,0.012553
55.919,0.012563
55.920,0.012574
55.921,0.012585
55.922,0.012596
55.923,0.012607
55.924,0.012618
55.925,0.012628
55.926,0.012639
55.927,0.012650
55.928,0.012661
55.929,0.012672
55.930,0.012683
55.931,0.012694
55.932,0.012704
55.933,0.012715
55.934,0.012726
55.935,0.012737
55.936,0.012748
55.937,0.012759
55.938,0.012770
55.939,0.012781
55.940,0.012792
55.941,0.012803
55.942,0.012814
55.943,0.012825
55.944,0.012836
55.945,0.012847
55.946,0.012858
55.947,0.012869
55.948,0.012880
55.949,0.012891
55.950,0.012902
55.951,0.012913
55.952,0.012924
55.953,0.012935
55.954,0.012946
55.955,0.012957
55.956,0.012968
55.957,0.012979
55.958,0.012990
55.959,0.013001
55.960,0.013012
55.961,0.013023
55.962,0.013035
55.963,0.013046
55.964,0.013057
55.965,0.013068
55.966,0.013079
55.967,0.013090
55.968,0.013101
55.969,0.013112
55.970,0.013124
55.971,0.013135
55.972,0.013146
55.973,0.013157
55.974,0.013168
55.975,0.013180
55.976,0.013191
55.977,0.013202
55.978,0.013213
55.979,0.013224
55.980,0.013236
55.981,0.013247
55.982,0.013258
55.983,0.013269
55.984,0.013281
55.985,0.013292
55.986,0.013303
55.987,0.013315
55.988,0.013326
55.989,0.013337
55.990,0.013348
55.991,0.013360
55.992,0.013371
55.993,0.013382
55.994,0.013394
55.995,0.013405
55.996,0.013417
55.997,0.013428
55.998,0.013439
55.999,0.013451
56.000,0.013462
56.001,0.013473
56.002,0.013485
56.003,0.013496
56.004,0.013508
56.005,0.013519
56.006,0.013530
56.007,0.013542
56.008,0.013553
56.009,0.013565
56.010,0.013576
56.011,0.013588
56.012,0.013599
56.013,0.013611
56.014,0.013622
56.015,0.013634
56.016,0.013645
56.017,0.013657
56.018,0.013668
56.019,0.013680
56.020,0.013691
56.021,0.013703
56.022,0.013714
56.023,0.013726
56.024,0.013737
56.025,0.013749
56.026,0.013761
56.027,0.013772
56.028,0.013784
56.029,0.013795
56.030,0.013807
56.031,0.013819
56.032,0.013830
56.033,0.013842
56.034,0.013854
56.035,0.013865
56.036,0.013877
56.037,0.013888
56.038,0.013900
56.039,0.013912
56.040,0.013924
56.041,0.013935
56.042,0.013947
56.043,0.013959
56.044,0.013970
56.045,0.013982
56.046,0.013994
56.047,0.014006
56.048,0.014017
56.049,0.014029
56.050,0.014041
56.051,0.014053
56.052,0.014064
56.053,0.014076
56.054,0.014088
56.055,0.014100
56.056,0.014111
56.057,0.014123
56.058,0.014135
56.059,0.014147
56.060,0.014159
56.061,0.014171
56.062,0.014182
56.063,0.014194
56.064,0.014206
56.065,0.014218
56.066,0.014230
56.067,0.014242
56.068,0.014254
56.069,0.014266
56.070,0.014278
56.071,0.014289
56.072,0.014301
56.073,0.014313
56.074,0.014325
56.075,0.014337
56.076,0.014349
56.077,0.014361
56.078,0.014373
56.079,0.014385
56.080,0.014397
56.081,0.014409
56.082,0.014421
56.083,0.014433
56.084,0.014445
56.085,0.014457
56.086,0.014469
56.087,0.014481
56.088,0.014493
56.089,0.014505
56.090,0.014517
56.091,0.014529
56.092,0.014542
56.093,0.014554
56.094,0.014566
56.095,0.014578
56.096,0.014590
56.097,0.014602
56.098,0.014614
56.099,0.014626
56.100,0.014638
56.101,0.014651
56.102,0.014663
56.103,0.014675
56.104,0.014687
56.105,0.014699
56.106,0.014711
56.107,0.014724
56.108,0.014736
56.109,0.014748
56.110,0.014760
56.111,0.014772
56.112,0.014785
56.113,0.014797
56.114,0.014809
56.115,0.014821
56.116,0.014834
56.117,0.014846
56.118,0.014858
56.119,0.014871
56.120,0.014883
56.121,0.014895
56.122,0.014907
56.123,0.014920
56.124,0.014932
56.125,0.014944
56.126,0.014957
56.127,0.014969
56.128,0.014981
56.129,0.014994
56.130,0.015006
56.131,0.015019
56.132,0.015031
56.133,0.015043
56.134,0.015056
56.135,0.015068
56.136,0.015081
56.137,0.015093
56.138,0.015106
56.139,0.015118
56.140,0.015130
56.141,0.015143
56.142,0.015155
56.143,0.015168
56.144,0.015180
56.145,0.015193
56.146,0.015205
56.147,0.015218
56.148,0.015230
56.149,0.015243
56.150,0.015255
56.151,0.015268
56.152,0.015280
56.153,0.015293
56.154,0.015306
56.155,0.015318
56.156,0.015331
56.157,0.015343
56.158,0.015356
56.159,0.015368
56.160,0.015381
56.161,0.015394
56.162,0.015406
56.163,0.015419
56.164,0.015432
56.165,0.015444
56.166,0.015457
56.167,0.015470
56.168,0.015482
56.169,0.015495
56.170,0.015508
56.171,0.015520
56.172,0.015533
56.173,0.015546
56.174,0.015558
56.175,0.015571
56.176,0.015584
56.177,0.015597
56.178,0.015609
56.179,0.015622
56.180,0.015635
56.181,0.015648
56.182,0.015661
56.183,0.015673
56.184,0.015686
56.185,0.015699
56.186,0.015712
56.187,0.015725
56.188,0.015737
56.189,0.015750
56.190,0.015763
56.191,0.015776
56.192,0.015789
56.193,0.015802
56.194,0.015815
56.195,0.015827
56.196,0.015840
56.197,0.015853
56.198,0.015866
56.199,0.015879
56.200,0.015892
56.201,0.015905
56.202,0.015918
56.203,0.015931
56.204,0.015944
56.205,0.015957
56.206,0.015970
56.207,0.015983
56.208,0.015996
56.209,0.016009
56.210,0.016022
56.211,0.016035
56.212,0.016048
56.213,0.016061
56.214,0.016074
56.215,0.016087
56.216,0.016100
56.217,0.016113
56.218,0.016126
56.219,0.016139
56.220,0.016152
56.221,0.016165
56.222,0.016178
56.223,0.016192
56.224,0.016205
56.225,0.016218
56.226,0.016231
56.227,0.016244
56.228,0.016257
56.229,0.016270
56.230,0.016284
56.231,0.016297
56.232,0.016310
56.233,0.016323
56.234,0.016336
56.235,0.016350
56.236,0.016363
56.237,0.016376
56.238,0.016389
56.239,0.016403
56.240,0.016416
56.241,0.016429
56.242,0.016442
56.243,0.016456
56.244,0.016469
56.245,0.016482
56.246,0.016495
56.247,0.016509
