Angle,Reflectance
55.000,0.013064
55.001,0.013074
55.002,0.013084
55.003,0.013094
55.004,0.013104
55.005,0.013115
55.006,0.013125
55.007,0.013135
55.008,0.013145
55.009,0.013155
55.010,0.013166
55.011,0.013176
55.012,0.013186
55.013,0.013196
55.014,0.013207
55.015,0.013217
55.016,0.013227
55.017,0.013237
55.018,0.013248
55.019,0.013258
55.020,0.013268
55.021,0.013278
55.022,0.013289
55.023,0.013299
55.024,0.013309
55.025,0.013320
55.026,0.013330
55.027,0.013340
55.028,0.013351
55.029,0.013361
55.030,0.013371
55.031,0.013382
55.032,0.013392
55.033,0.013402
55.034,0.013413
55.035,0.013423
55.036,0.013433
55.037,0.013444
55.038,0.013454
55.039,0.013465
55.040,0.013475
55.041,0.013485
55.042,0.013496
55.043,0.013506
55.044,0.013517
55.045,0.013527
55.046,0.013538
55.047,0.013548
55.048,0.013558
55.049,0.013569
55.050,0.013579
55.051,0.013590
55.052,0.013600
55.053,0.013611
55.054,0.013621
55.055,0.013632
55.056,0.013642
55.057,0.013653
55.058,0.013663
55.059,0.013674
55.060,0.013685
55.061,0.013695
55.062,0.013706
55.063,0.013716
55.064,0.013727
55.065,0.013737
55.066,0.013748
55.067,0.013759
55.068,0.013769
55.069,0.013780
55.070,0.013790
55.071,0.013801
55.072,0.013812
55.073,0.013822
55.074,0.013833
55.075,0.013843
55.076,0.013854
55.077,0.013865
55.078,0.013875
55.079,0.013886
55.080,0.013897
55.081,0.013907
55.082,0.013918
55.083,0.013929
55.084,0.013940
55.085,0.013950
55.086,0.013961
55.087,0.013972
55.088,0.013982
55.089,0.013993
55.090,0.014004
55.091,0.014015
55.092,0.014025
55.093,0.014036
55.094,0.014047
55.095,0.014058
55.096,0.014068
55.097,0.014079
55.098,0.014090
55.099,0.014101
55.100,0.014112
55.101,0.014122
55.102,0.014133
55.103,0.014144
55.104,0.014155
55.105,0.014166
55.106,0.014177
55.107,0.014188
55.108,0.014198
55.109,0.014209
55.110,0.014220
55.111,0.014231
55.112,0.014242
55.113,0.014253
55.114,0.014264
55.115,0.014275
55.116,0.014286
55.117,0.014297
55.118,0.014307
55.119,0.014318
55.120,0.014329
55.121,0.014340
55.122,0.014351
55.123,0.014362
55.124,0.014373
55.125,0.014384
55.126,0.014395
55.127,0.014406
55.128,0.014417
55.129,0.014428
55.130,0.014439
55.131,0.014450
55.132,0.014461
55.133,0.014472
55.134,0.014483
55.135,0.014494
55.136,0.014505
55.137,0.014516
55.138,0.014528
55.139,0.014539
55.140,0.014550
55.141,0.014561
55.142,0.014572
55.143,0.014583
55.144,0.014594
55.145,0.014605
55.146,0.014616
55.147,0.014628
55.148,0.014639
55.149,0.014650
55.150,0.014661
55.151,0.014672
55.152,0.014683
55.153,0.014694
55.154,0.014706
55.155,0.014717
55.156,0.014728
55.157,0.014739
55.158,0.014750
55.159,0.014762
55.160,0.014773
55.161,0.014784
55.162,0.014795
55.163,0.014807
55.164,0.014818
55.165,0.014829
55.166,0.014840
55.167,0.014852
55.168,0.014863
55.169,0.014874
55.170,0.014886
55.171,0.014897
55.172,0.014908
55.173,0.014919
55.174,0.014931
55.175,0.014942
55.176,0.014953
55.177,0.014965
55.178,0.014976
55.179,0.014988
55.180,0.014999
55.181,0.015010
55.182,0.015022
55.183,0.015033
55.184,0.015044
55.185,0.015056
55.186,0.015067
55.187,0.015079
55.188,0.015090
55.189,0.015102
55.190,0.015113
55.191,0.015124
55.192,0.015136
55.193,0.015147
55.194,0.015159
55.195,0.015170
55.196,0.015182
55.197,0.015193
55.198,0.015205
55.199,0.015216
55.200,0.015228
55.201,0.015239
55.202,0.015251
55.203,0.015262
55.204,0.015274
55.205,0.015285
55.206,0.015297
55.207,0.015308
55.208,0.015320
55.209,0.015332
55.210,0.015343
55.211,0.015355
55.212,0.015366
55.213,0.015378
55.214,0.015390
55.215,0.015401
55.216,0.015413
55.217,0.015424
55.218,0.015436
55.219,0.015448
55.220,0.015459
55.221,0.015471
55.222,0.015483
55.223,0.015494
55.224,0.015506
55.225,0.015518
55.226,0.015529
55.227,0.015541
55.228,0.015553
55.229,0.015565
55.230,0.015576
55.231,0.015588
55.232,0.015600
55.233,0.015612
55.234,0.015623
55.235,0.015635
55.236,0.015647
55.237,0.015659
55.238,0.015670
55.239,0.015682
55.240,0.015694
55.241,0.015706
55.242,0.015718
55.243,0.015729
55.244,0.015741
55.245,0.015753
55.246,0.015765
55.247,0.015777
55.248,0.015789
55.249,0.015800
55.250,0.015812
55.251,0.015824
55.252,0.015836
55.253,0.015848
55.254,0.015860
55.255,0.015872
55.256,0.015884
55.257,0.015896
55.258,0.015908
55.259,0.015920
55.260,0.015931
55.261,0.015943
55.262,0.015955
55.263,0.015967
55.264,0.015979
55.265,0.015991
55.266,0.016003
55.267,0.016015
55.268,0.016027
55.269,0.016039
55.270,0.016051
55.271,0.016063
55.272,0.016075
55.273,0.016087
55.274,0.016099
55.275,0.016111
55.276,0.016124
55.277,0.016136
55.278,0.016148
55.279,0.016160
55.280,0.016172
55.281,0.016184
55.282,0.016196
55.283,0.016208
55.284,0.016220
55.285,0.016232
55.286,0.016245
55.287,0.016257
55.288,0.016269
55.289,0.016281
55.290,0.016293
55.291,0.016305
55.292,0.016318
55.293,0.016330
55.294,0.016342
55.295,0.016354
55.296,0.016366
55.297,0.016379
55.298,0.016391
55.299,0.016403
55.300,0.016415
55.301,0.016427
55.302,0.016440
55.303,0.016452
55.304,0.016464
55.305,0.016477
55.306,0.016489
55.307,0.016501
55.308,0.016513
55.309,0.016526
55.310,0.016538
55.311,0.016550
55.312,0.016563
55.313,0.016575
55.314,0.016587
55.315,0.016600
55.316,0.016612
55.317,0.016624
55.318,0.016637
55.319,0.016649
55.320,0.016662
55.321,0.016674
55.322,0.016686
55.323,0.016699
55.324,0.016711
55.325,0.016724
55.326,0.016736
55.327,0.016749
55.328,0.016761
55.329,0.016773
55.330,0.016786
55.331,0.016798
55.332,0.016811
55.333,0.016823
55.334,0.016836
55.335,0.016848
55.336,0.016861
55.337,0.016873
55.338,0.016886
55.339,0.016898
55.340,0.016911
55.341,0.016924
55.342,0.016936
55.343,0.016949
55.344,0.016961
55.345,0.016974
55.346,0.016986
55.347,0.016999
55.348,0.017012
55.349,0.017024
55.350,0.017037
55.351,0.017049
55.352,0.017062
55.353,0.017075
55.354,0.017087
55.355,0.017100
55.356,0.017113
55.357,0.017125
55.358,0.017138
55.359,0.017151
55.360,0.017163
55.361,0.017176
55.362,0.017189
55.363,0.017202
55.364,0.017214
55.365,0.017227
55.366,0.017240
55.367,0.017252
55.368,0.017265
55.369,0.017278
55.370,0.017291
55.371,0.017304
55.372,0.017316
55.373,0.017329
55.374,0.017342
55.375,0.017355
55.376,0.017368
55.377,0.017380
55.378,0.017393
55.379,0.017406
55.380,0.017419
55.381,0.017432
55.382,0.017445
55.383,0.017458
55.384,0.017470
55.385,0.017483
55.386,0.017496
55.387,0.017509
55.388,0.017522
55.389,0.017535
55.390,0.017548
55.391,0.017561
55.392,0.017574
55.393,0.017587
55.394,0.017600
55.395,0.017613
55.396,0.017626
55.397,0.017639
55.398,0.017652
55.399,0.017665
55.400,0.017678
55.401,0.017691
55.402,0.017704
55.403,0.017717
55.404,0.017730
55.405,0.017743
55.406,0.017756
55.407,0.017769
55.408,0.017782
55.409,0.017795
55.410,0.017808
55.411,0.017821
55.412,0.017834
55.413,0.017847
55.414,0.017860
55.415,0.017873
55.416,0.017887
55.417,0.017900
55.418,0.017913
55.419,0.017926
55.420,0.017939
55.421,0.017952
55.422,0.017966
55.423,0.017979
55.424,0.017992
55.425,0.018005
55.426,0.018018
55.427,0.018032
55.428,0.018045
55.429,0.018058
55.430,0.018071
55.431,0.018085
55.432,0.018098
55.433,0.018111
55.434,0.018124
55.435,0.018138
55.436,0.018151
55.437,0.018164
55.438,0.018177
55.439,0.018191
55.440,0.018204
55.441,0.018217
55.442,0.018231
55.443,0.018244
55.444,0.018257
55.445,0.018271
55.446,0.018284
55.447,0.018298
55.448,0.018311
55.449,0.018324
55.450,0.018338
55.451,0.018351
55.452,0.018365
55.453,0.018378
55.454,0.018391
55.455,0.018405
55.456,0.018418
55.457,0.018432
55.458,0.018445
55.459,0.018459
55.460,0.018472
55.461,0.018486
55.462,0.018499
55.463,0.018513
55.464,0.018526
55.465,0.018540
55.466,0.018553
55.467,0.018567
55.468,0.018580
55.469,0.018594
55.470,0.018607
55.471,0.018621
55.472,0.018635
55.473,0.018648
55.474,0.018662
55.475,0.018675
55.476,0.018689
55.477,0.018703
55.478,0.018716
55.479,0.018730
55.480,0.018743
55.481,0.018757
55.482,0.018771
55.483,0.018784
55.484,0.018798
55.485,0.018812
55.486,0.018825
55.487,0.018839
55.488,0.018853
55.489,0.018867
55.490,0.018880
55.491,0.018894
55.492,0.018908
55.493,0.018921
55.494,0.018935
55.495,0.018949
55.496,0.018963
55.497,0.018977
55.498,0.018990
55.499,0.019004
55.500,0.019018
55.501,0.019032
55.502,0.019046
55.503,0.019059
55.504,0.019073
55.505,0.019087
55.506,0.019101
55.507,0.019115
55.508,0.019129
55.509,0.019142
55.510,0.019156
55.511,0.019170
55.512,0.019184
55.513,0.019198
55.514,0.019212
55.515,0.019226
55.516,0.019240
55.517,0.019254
55.518,0.019268
55.519,0.019282
55.520,0.019296
55.521,0.019310
55.522,0.019324
55.523,0.019338
55.524,0.019352
55.525,0.019366
55.526,0.019380
55.527,0.019394
55.528,0.019408
55.529,0.019422
55.530,0.019436
55.531,0.019450
55.532,0.019464
55.533,0.019478
55.534,0.019492
55.535,0.019506
55.536,0.019520
55.537,0.019534
55.538,0.019548
55.539,0.019563
55.540,0.019577
55.541,0.019591
55.542,0.019605
55.543,0.019619
55.544,0.019633
55.545,0.019647
55.546,0.019662
55.547,0.019676
55.548,0.019690
55.549,0.019704
55.550,0.019718
55.551,0.019733
55.552,0.019747
55.553,0.019761
55.554,0.019775
55.555,0.019790
55.556,0.019804
55.557,0.019818
55.558,0.019832
55.559,0.019847
55.560,0.019861
55.561,0.019875
55.562,0.019890
55.563,0.019904
55.564,0.019918
55.565,0.019933
55.566,0.019947
55.567,0.019961
55.568,0.019976
55.569,0.019990
55.570,0.020004
55.571,0.020019
55.572,0.020033
55.573,0.020048
55.574,0.020062
55.575,0.020077
55.576,0.020091
55.577,0.020105
55.578,0.020120
55.579,0.020134
55.580,0.020149
55.581,0.020163
55.582,0.020178
55.583,0.020192
55.584,0.020207
55.585,0.020221
55.586,0.020236
55.587,0.020250
55.588,0.020265
55.589,0.020279
55.590,0.020294
55.591,0.020308
55.592,0.020323
55.593,0.020338
55.594,0.020352
55.595,0.020367
55.596,0.020381
55.597,0.020396
55.598,0.020411
55.599,0.020425
55.600,0.020440
55.601,0.020454
55.602,0.020469
55.603,0.020484
55.604,0.020498
55.605,0.020513
55.606,0.020528
55.607,0.020543
55.608,0.020557
55.609,0.020572
55.610,0.020587
55.611,0.020601
55.612,0.020616
55.613,0.020631
55.614,0.020646
55.615,0.020660
55.616,0.020675
55.617,0.020690
55.618,0.020705
55.619,0.020719
55.620,0.020734
55.621,0.020749
55.622,0.020764
55.623,0.020779
55.624,0.020794
55.625,0.020808
55.626,0.020823
55.627,0.020838
55.628,0.020853
55.629,0.020868
55.630,0.020883
55.631,0.020898
55.632,0.020913
55.633,0.020928
55.634,0.020942
55.635,0.020957
55.636,0.020972
55.637,0.020987
55.638,0.021002
55.639,0.021017
55.640,0.021032
55.641,0.021047
55.642,0.021062
55.643,0.021077
55.644,0.021092
55.645,0.021107
55.646,0.021122
55.647,0.021137
55.648,0.021152
55.649,0.021167
55.650,0.021182
55.651,0.021198
55.652,0.021213
55.653,0.021228
55.654,0.021243
55.655,0.021258
55.656,0.021273
55.657,0.021288
55.658,0.021303
55.659,0.021318
55.660,0.021334
55.661,0.021349
55.662,0.021364
55.663,0.021379
55.664,0.021394
55.665,0.021409
55.666,0.021425
55.667,0.021440
55.668,0.021455
55.669,0.021470
55.670,0.021486
55.671,0.021501
55.672,0.021516
55.673,0.021531
55.674,0.021547
55.675,0.021562
55.676,0.021577
55.677,0.021592
55.678,0.021608
55.679,0.021623
55.680,0.021638
55.681,0.021654
55.682,0.021669
55.683,0.021684
55.684,0.021700
55.685,0.021715
55.686,0.021731
55.687,0.021746
55.688,0.021761
55.689,0.021777
55.690,0.021792
55.691,0.021808
55.692,0.021823
55.693,0.021838
55.694,0.021854
55.695,0.021869
55.696,0.021885
55.697,0.021900
55.698,0.021916
55.699,0.021931
55.700,0.021947
55.701,0.021962
55.702,0.021978
55.703,0.021993
55.704,0.022009
55.705,0.022024
55.706,0.022040
55.707,0.022056
55.708,0.022071
55.709,0.022087
55.710,0.022102
55.711,0.022118
55.712,0.022134
55.713,0.022149
55.714,0.022165
55.715,0.022180
55.716,0.022196
55.717,0.022212
55.718,0.022227
55.719,0.022243
55.720,0.022259
55.721,0.022274
55.722,0.022290
55.723,0.022306
55.724,0.022322
55.725,0.022337
55.726,0.022353
55.727,0.022369
55.728,0.022384
55.729,0.022400
55.730,0.022416
55.731,0.022432
55.732,0.022448
55.733,0.022463
55.734,0.022479
55.735,0.022495
55.736,0.022511
55.737,0.022527
55.738,0.022542
55.739,0.022558
55.740,0.022574
55.741,0.022590
55.742,0.022606
55.743,0.022622
55.744,0.022638
55.745,0.022654
55.746,0.022670
55.747,0.022685
55.748,0.022701
55.749,0.022717
55.750,0.022733
55.751,0.022749
55.752,0.022765
55.753,0.022781
55.754,0.022797
55.755,0.022813
55.756,0.022829
55.757,0.022845
55.758,0.022861
55.759,0.022877
55.760,0.022893
55.761,0.022909
55.762,0.022925
55.763,0.022941
55.764,0.022958
55.765,0.022974
55.766,0.022990
55.767,0.023006
55.768,0.023022
55.769,0.023038
55.770,0.023054
55.771,0.023070
55.772,0.023086
55.773,0.023103
55.774,0.023119
55.775,0.023135
55.776,0.023151
55.777,0.023167
55.778,0.023184
55.779,0.023200
55.780,0.023216
55.781,0.023232
55.782,0.023248
55.783,0.023265
55.784,0.023281
55.785,0.023297
55.786,0.023314
55.787,0.023330
55.788,0.023346
55.789,0.023362
55.790,0.023379
55.791,0.023395
55.792,0.023411
55.793,0.023428
55.794,0.023444
55.795,0.023460
55.796,0.023477
55.797,0.023493
55.798,0.023510
55.799,0.023526
55.800,0.023542
55.801,0.023559
55.802,0.023575
55.803,0.023592
55.804,0.023608
55.805,0.023625
55.806,0.023641
55.807,0.023657
55.808,0.023674
55.809,0.023690
55.810,0.023707
55.811,0.023723
55.812,0.023740
55.813,0.023757
55.814,0.023773
55.815,0.023790
55.816,0.023806
55.817,0.023823
55.818,0.023839
55.819,0.023856
55.820,0.023872
55.821,0.023889
55.822,0.023906
55.823,0.023922
55.824,0.023939
55.825,0.023956
55.826,0.023972
55.827,0.023989
55.828,0.024006
55.829,0.024022
55.830,0.024039
55.831,0.024056
55.832,0.024072
55.833,0.024089
55.834,0.024106
55.835,0.024122
55.836,0.024139
55.837,0.024156
55.838,0.024173
55.839,0.024189
55.840,0.024206
55.841,0.024223
55.842,0.024240
55.843,0.024257
55.844,0.024273
55.845,0.024290
55.846,0.024307
55.847,0.024324
55.848,0.024341
55.849,0.024358
55.850,0.024375
55.851,0.024391
55.852,0.024408
55.853,0.024425
55.854,0.024442
55.855,0.024459
55.856,0.024476
55.857,0.024493
55.858,0.024510
55.859,0.024527
55.860,0.024544
55.861,0.024561
55.862,0.024578
55.863,0.024595
55.864,0.024612
55.865,0.024629
55.866,0.024646
55.867,0.024663
55.868,0.024680
55.869,0.024697
55.870,0.024714
55.871,0.024731
55.872,0.024748
55.873,0.024765
55.874,0.024782
55.875,0.024799
55.876,0.024816
55.877,0.024834
55.878,0.024851
55.879,0.024868
55.880,0.024885
55.881,0.024902
55.882,0.024919
55.883,0.024937
55.884,0.024954
55.885,0.024971
55.886,0.024988
55.887,0.025005
55.888,0.025023
55.889,0.025040
55.890,0.025057
55.891,0.025074
55.892,0.025092
55.893,0.025109
55.894,0.025126
55.895,0.025144
55.896,0.025161
55.897,0.025178
55.898,0.025195
55.899,0.025213
55.900,0.025230
55.901,0.025248
55.902,0.025265
55.903,0.025282
55.904,0.025300
55.905,0.025317
55.906,0.025334
55.907,0.025352
55.908,0.025369
55.909,0.025387
55.910,0.025404
55.911,0.025422
55.912,0.025439
55.913,0.025457
55.914,0.025474
55.915,0.025492
55.916,0.025509
55.917,0.025527
55.918,0.025544
55.919,0.025562
55.920,0.025579
55.921,0.025597
55.922,0.025614
55.923,0.025632
55.924,0.025649
55.925,0.025667
55.926,0.025685
55.927,0.025702
55.928,0.025720
55.929,0.025737
55.930,0.025755
55.931,0.025773
55.932,0.025790
55.933,0.025808
55.934,0.025826
55.935,0.025843
55.936,0.025861
55.937,0.025879
55.938,0.025896
55.939,0.025914
55.940,0.025932
55.941,0.025950
55.942,0.025967
55.943,0.025985
55.944,0.026003
55.945,0.026021
55.946,0.026038
55.947,0.026056
55.948,0.026074
55.949,0.026092
55.950,0.026110
55.951,0.026128
55.952,0.026145
55.953,0.026163
55.954,0.026181
55.955,0.026199
55.956,0.026217
55.957,0.026235
55.958,0.026253
55.959,0.026271
55.960,0.026289
55.961,0.026307
55.962,0.026324
55.963,0.026342
55.964,0.026360
55.965,0.026378
55.966,0.026396
55.967,0.026414
55.968,0.026432
55.969,0.026450
55.970,0.026468
55.971,0.026486
55.972,0.026504
55.973,0.026523
55.974,0.026541
55.975,0.026559
55.976,0.026577
55.977,0.026595
55.978,0.026613
55.979,0.026631
55.980,0.026649
55.981,0.026667
55.982,0.026685
55.983,0.026704
55.984,0.026722
55.985,0.026740
55.986,0.026758
55.987,0.026776
55.988,0.026795
55.989,0.026813
55.990,0.026831
55.991,0.026849
55.992,0.026867
55.993,0.026886
55.994,0.026904
55.995,0.026922
55.996,0.026941
55.997,0.026959
55.998,0.026977
55.999,0.026995
56.000,0.027014
56.001,0.027032
56.002,0.027050
56.003,0.027069
56.004,0.027087
56.005,0.027106
56.006,0.027124
56.007,0.027142
56.008,0.027161
56.009,0.027179
56.010,0.027198
56.011,0.027216
56.012,0.027234
56.013,0.027253
56.014,0.027271
56.015,0.027290
56.016,0.027308
56.017,0.027327
56.018,0.027345
56.019,0.027364
56.020,0.027382
56.021,0.027401
56.022,0.027419
56.023,0.027438
56.024,0.027457
56.025,0.027475
56.026,0.027494
56.027,0.027512
56.028,0.027531
56.029,0.027549
56.030,0.027568
56.031,0.027587
56.032,0.027605
56.033,0.027624
56.034,0.027643
56.035,0.027661
56.036,0.027680
56.037,0.027699
56.038,0.027717
56.039,0.027736
56.040,0.027755
56.041,0.027774
56.042,0.027792
56.043,0.027811
56.044,0.027830
56.045,0.027849
56.046,0.027867
56.047,0.027886
56.048,0.027905
56.049,0.027924
56.050,0.027943
56.051,0.027962
56.052,0.027980
56.053,0.027999
56.054,0.028018
56.055,0.028037
56.056,0.028056
56.057,0.028075
56.058,0.028094
56.059,0.028113
56.060,0.028131
56.061,0.028150
56.062,0.028169
56.063,0.028188
56.064,0.028207
56.065,0.028226
56.066,0.028245
56.067,0.028264
56.068,0.028283
56.069,0.028302
56.070,0.028321
56.071,0.028340
56.072,0.028359
56.073,0.028378
56.074,0.028398
56.075,0.028417
56.076,0.028436
56.077,0.028455
56.078,0.028474
56.079,0.028493
56.080,0.028512
56.081,0.028531
56.082,0.028550
56.083,0.028570
56.084,0.028589
56.085,0.028608
56.086,0.028627
56.087,0.028646
56.088,0.028666
56.089,0.028685
56.090,0.028704
56.091,0.028723
56.092,0.028743
56.093,0.028762
56.094,0.028781
56.095,0.028800
56.096,0.028820
56.097,0.028839
56.098,0.028858
56.099,0.028878
56.100,0.028897
56.101,0.028916
56.102,0.028936
56.103,0.028955
56.104,0.028974
56.105,0.028994
56.106,0.029013
56.107,0.029033
56.108,0.029052
56.109,0.029071
56.110,0.029091
56.111,0.029110
56.112,0.029130
56.113,0.029149
56.114,0.029169
56.115,0.029188
56.116,0.029208
56.117,0.029227
56.118,0.029247
56.119,0.029266
56.120,0.029286
56.121,0.029305
56.122,0.029325
56.123,0.029345
56.124,0.029364
56.125,0.029384
56.126,0.029403
56.127,0.029423
56.128,0.029443
56.129,0.029462
56.130,0.029482
56.131,0.029502
56.132,0.029521
56.133,0.029541
56.134,0.029561
56.135,0.029580
56.136,0.029600
56.137,0.029620
56.138,0.029639
56.139,0.029659
56.140,0.029679
56.141,0.029699
56.142,0.029718
56.143,0.029738
56.144,0.029758
56.145,0.029778
56.146,0.029798
56.147,0.029817
56.148,0.029837
56.149,0.029857
56.150,0.029877
56.151,0.029897
56.152,0.029917
56.153,0.029937
56.154,0.029957
56.155,0.029976
56.156,0.029996
56.157,0.030016
56.158,0.030036
56.159,0.030056
56.160,0.030076
56.161,0.030096
56.162,0.030116
56.163,0.030136
56.164,0.030156
56.165,0.030176
56.166,0.030196
56.167,0.030216
56.168,0.030236
56.169,0.030256
56.170,0.030276
56.171,0.030296
56.172,0.030317
56.173,0.030337
56.174,0.030357
56.175,0.030377
56.176,0.030397
56.177,0.030417
56.178,0.030437
56.179,0.030457
56.180,0.030478
56.181,0.030498
56.182,0.030518
56.183,0.030538
56.184,0.030558
56.185,0.030579
56.186,0.030599
56.187,0.030619
56.188,0.030639
56.189,0.030660
56.190,0.030680
56.191,0.030700
56.192,0.030721
56.193,0.030741
56.194,0.030761
56.195,0.030782
56.196,0.030802
56.197,0.030822
56.198,0.030843
56.199,0.030863
56.200,0.030883
56.201,0.030904
56.202,0.030924
56.203,0.030945
56.204,0.030965
56.205,0.030985
56.206,0.031006
56.207,0.031026
56.208,0.031047
56.209,0.031067
56.210,0.031088
56.211,0.031108
56.212,0.031129
56.213,0.031149
56.214,0.031170
56.215,0.031190
56.216,0.031211
56.217,0.031232
56.218,0.031252
56.219,0.031273
56.220,0.031293
56.221,0.031314
56.222,0.031335
56.223,0.031355
56.224,0.031376
56.225,0.031397
56.226,0.031417
56.227,0.031438
56.228,0.031459
56.229,0.031479
56.230,0.031500
56.231,0.031521
56.232,0.031541
56.233,0.031562
56.234,0.031583
56.235,0.031604
56.236,0.031624
56.237,0.031645
56.238,0.031666
56.239,0.031687
56.240,0.031708
56.241,0.031729
56.242,0.031749
56.243,0.031770
56.244,0.031791
56.245,0.031812
56.246,0.031833
56.247,0.031854
