Angle,Reflectance
55.000,0.310471
55.001,0.310517
55.002,0.310563
55.003,0.310608
55.004,0.310654
55.005,0.310700
55.006,0.310745
55.007,0.310791
55.008,0.310837
55.009,0.310883
55.010,0.310928
55.011,0.310974
55.012,0.311020
55.013,0.311066
55.014,0.311112
55.015,0.311157
55.016,0.311203
55.017,0.311249
55.018,0.311295
55.019,0.311341
55.020,0.311387
55.021,0.311433
55.022,0.311479
55.023,0.311525
55.024,0.311571
55.025,0.311617
55.026,0.311663
55.027,0.311709
55.028,0.311755
55.029,0.311802
55.030,0.311848
55.031,0.311894
55.032,0.311940
55.033,0.311986
55.034,0.312032
55.035,0.312079
55.036,0.312125
55.037,0.312171
55.038,0.312218
55.039,0.312264
55.040,0.312310
55.041,0.312357
55.042,0.312403
55.043,0.312449
55.044,0.312496
55.045,0.312542
55.046,0.312589
55.047,0.312635
55.048,0.312682
55.049,0.312728
55.050,0.312775
55.051,0.312821
55.052,0.312868
55.053,0.312914
55.054,0.312961
55.055,0.313008
55.056,0.313054
55.057,0.313101
55.058,0.313148
55.059,0.313194
55.060,0.313241
55.061,0.313288
55.062,0.313335
55.063,0.313381
55.064,0.313428
55.065,0.313475
55.066,0.313522
55.067,0.313569
55.068,0.313616
55.069,0.313662
55.070,0.313709
55.071,0.313756
55.072,0.313803
55.073,0.313850
55.074,0.313897
55.075,0.313944
55.076,0.313991
55.077,0.314038
55.078,0.314085
55.079,0.314132
55.080,0.314180
55.081,0.314227
55.082,0.314274
55.083,0.314321
55.084,0.314368
55.085,0.314415
55.086,0.314463
55.087,0.314510
55.088,0.314557
55.089,0.314604
55.090,0.314652
55.091,0.314699
55.092,0.314746
55.093,0.314794
55.094,0.314841
55.095,0.314888
55.096,0.314936
55.097,0.314983
55.098,0.315031
55.099,0.315078
55.100,0.315126
55.101,0.315173
55.102,0.315221
55.103,0.315268
55.104,0.315316
55.105,0.315363
55.106,0.315411
55.107,0.315459
55.108,0.315506
55.109,0.315554
55.110,0.315601
55.111,0.315649
55.112,0.315697
55.113,0.315745
55.114,0.315792
55.115,0.315840
55.116,0.315888
55.117,0.315936
55.118,0.315984
55.119,0.316031
55.120,0.316079
55.121,0.316127
55.122,0.316175
55.123,0.316223
55.124,0.316271
55.125,0.316319
55.126,0.316367
55.127,0.316415
55.128,0.316463
55.129,0.316511
55.130,0.316559
55.131,0.316607
55.132,0.316655
55.133,0.316703
55.134,0.316751
55.135,0.316800
55.136,0.316848
55.137,0.316896
55.138,0.316944
55.139,0.316992
55.140,0.317041
55.141,0.317089
55.142,0.317137
55.143,0.317185
55.144,0.317234
55.145,0.317282
55.146,0.317330
55.147,0.317379
55.148,0.317427
55.149,0.317476
55.150,0.317524
55.151,0.317573
55.152,0.317621
55.153,0.317670
55.154,0.317718
55.155,0.317767
55.156,0.317815
55.157,0.317864
55.158,0.317912
55.159,0.317961
55.160,0.318010
55.161,0.318058
55.162,0.318107
55.163,0.318156
55.164,0.318204
55.165,0.318253
55.166,0.318302
55.167,0.318350
55.168,0.318399
55.169,0.318448
55.170,0.318497
55.171,0.318546
55.172,0.318595
55.173,0.318643
55.174,0.318692
55.175,0.318741
55.176,0.318790
55.177,0.318839
55.178,0.318888
55.179,0.318937
55.180,0.318986
55.181,0.319035
55.182,0.319084
55.183,0.319133
55.184,0.319182
55.185,0.319231
55.186,0.319281
55.187,0.319330
55.188,0.319379
55.189,0.319428
55.190,0.319477
55.191,0.319526
55.192,0.319576
55.193,0.319625
55.194,0.319674
55.195,0.319723
55.196,0.319773
55.197,0.319822
55.198,0.319871
55.199,0.319921
55.200,0.319970
55.201,0.320020
55.202,0.320069
55.203,0.320118
55.204,0.320168
55.205,0.320217
55.206,0.320267
55.207,0.320316
55.208,0.320366
55.209,0.320416
55.210,0.320465
55.211,0.320515
55.212,0.320564
55.213,0.320614
55.214,0.320664
55.215,0.320713
55.216,0.320763
55.217,0.320813
55.218,0.320862
55.219,0.320912
55.220,0.320962
55.221,0.321012
55.222,0.321062
55.223,0.321111
55.224,0.321161
55.225,0.321211
55.226,0.321261
55.227,0.321311
55.228,0.321361
55.229,0.321411
55.230,0.321461
55.231,0.321511
55.232,0.321561
55.233,0.321611
55.234,0.321661
55.235,0.321711
55.236,0.321761
55.237,0.321811
55.238,0.321861
55.239,0.321911
55.240,0.321961
55.241,0.322012
55.242,0.322062
55.243,0.322112
55.244,0.322162
55.245,0.322212
55.246,0.322263
55.247,0.322313
55.248,0.322363
55.249,0.322414
55.250,0.322464
55.251,0.322514
55.252,0.322565
55.253,0.322615
55.254,0.322665
55.255,0.322716
55.256,0.322766
55.257,0.322817
55.258,0.322867
55.259,0.322918
55.260,0.322968
55.261,0.323019
55.262,0.323069
55.263,0.323120
55.264,0.323171
55.265,0.323221
55.266,0.323272
55.267,0.323323
55.268,0.323373
55.269,0.323424
55.270,0.323475
55.271,0.323525
55.272,0.323576
55.273,0.323627
55.274,0.323678
55.275,0.323729
55.276,0.323779
55.277,0.323830
55.278,0.323881
55.279,0.323932
55.280,0.323983
55.281,0.324034
55.282,0.324085
55.283,0.324136
55.284,0.324187
55.285,0.324238
55.286,0.324289
55.287,0.324340
55.288,0.324391
55.289,0.324442
55.290,0.324493
55.291,0.324544
55.292,0.324595
55.293,0.324646
55.294,0.324698
55.295,0.324749
55.296,0.324800
55.297,0.324851
55.298,0.324902
55.299,0.324954
55.300,0.325005
55.301,0.325056
55.302,0.325108
55.303,0.325159
55.304,0.325210
55.305,0.325262
55.306,0.325313
55.307,0.325365
55.308,0.325416
55.309,0.325467
55.310,0.325519
55.311,0.325570
55.312,0.325622
55.313,0.325674
55.314,0.325725
55.315,0.325777
55.316,0.325828
55.317,0.325880
55.318,0.325931
55.319,0.325983
55.320,0.326035
55.321,0.326086
55.322,0.326138
55.323,0.326190
55.324,0.326242
55.325,0.326293
55.326,0.326345
55.327,0.326397
55.328,0.326449
55.329,0.326501
55.330,0.326553
55.331,0.326604
55.332,0.326656
55.333,0.326708
55.334,0.326760
55.335,0.326812
55.336,0.326864
55.337,0.326916
55.338,0.326968
55.339,0.327020
55.340,0.327072
55.341,0.327124
55.342,0.327176
55.343,0.327228
55.344,0.327280
55.345,0.327333
55.346,0.327385
55.347,0.327437
55.348,0.327489
55.349,0.327541
55.350,0.327594
55.351,0.327646
55.352,0.327698
55.353,0.327750
55.354,0.327803
55.355,0.327855
55.356,0.327907
55.357,0.327960
55.358,0.328012
55.359,0.328065
55.360,0.328117
55.361,0.328169
55.362,0.328222
55.363,0.328274
55.364,0.328327
55.365,0.328379
55.366,0.328432
55.367,0.328484
55.368,0.328537
55.369,0.328590
55.370,0.328642
55.371,0.328695
55.372,0.328748
55.373,0.328800
55.374,0.328853
55.375,0.328906
55.376,0.328958
55.377,0.329011
55.378,0.329064
55.379,0.329117
55.380,0.329169
55.381,0.329222
55.382,0.329275
55.383,0.329328
55.384,0.329381
55.385,0.329434
55.386,0.329487
55.387,0.329540
55.388,0.329593
55.389,0.329645
55.390,0.329698
55.391,0.329751
55.392,0.329805
55.393,0.329858
55.394,0.329911
55.395,0.329964
55.396,0.330017
55.397,0.330070
55.398,0.330123
55.399,0.330176
55.400,0.330229
55.401,0.330283
55.402,0.330336
55.403,0.330389
55.404,0.330442
55.405,0.330496
55.406,0.330549
55.407,0.330602
55.408,0.330656
55.409,0.330709
55.410,0.330762
55.411,0.330816
55.412,0.330869
55.413,0.330922
55.414,0.330976
55.415,0.331029
55.416,0.331083
55.417,0.331136
55.418,0.331190
55.419,0.331243
55.420,0.331297
55.421,0.331351
55.422,0.331404
55.423,0.331458
55.424,0.331511
55.425,0.331565
55.426,0.331619
55.427,0.331672
55.428,0.331726
55.429,0.331780
55.430,0.331834
55.431,0.331887
55.432,0.331941
55.433,0.331995
55.434,0.332049
55.435,0.332103
55.436,0.332156
55.437,0.332210
55.438,0.332264
55.439,0.332318
55.440,0.332372
55.441,0.332426
55.442,0.332480
55.443,0.332534
55.444,0.332588
55.445,0.332642
55.446,0.332696
55.447,0.332750
55.448,0.332804
55.449,0.332858
55.450,0.332912
55.451,0.332967
55.452,0.333021
55.453,0.333075
55.454,0.333129
55.455,0.333183
55.456,0.333237
55.457,0.333292
55.458,0.333346
55.459,0.333400
55.460,0.333455
55.461,0.333509
55.462,0.333563
55.463,0.333618
55.464,0.333672
55.465,0.333726
55.466,0.333781
55.467,0.333835
55.468,0.333890
55.469,0.333944
55.470,0.333999
55.471,0.334053
55.472,0.334108
55.473,0.334162
55.474,0.334217
55.475,0.334271
55.476,0.334326
55.477,0.334381
55.478,0.334435
55.479,0.334490
55.480,0.334545
55.481,0.334599
55.482,0.334654
55.483,0.334709
55.484,0.334764
55.485,0.334818
55.486,0.334873
55.487,0.334928
55.488,0.334983
55.489,0.335038
55.490,0.335093
55.491,0.335147
55.492,0.335202
55.493,0.335257
55.494,0.335312
55.495,0.335367
55.496,0.335422
55.497,0.335477
55.498,0.335532
55.499,0.335587
55.500,0.335642
55.501,0.335697
55.502,0.335752
55.503,0.335808
55.504,0.335863
55.505,0.335918
55.506,0.335973
55.507,0.336028
55.508,0.336083
55.509,0.336139
55.510,0.336194
55.511,0.336249
55.512,0.336304
55.513,0.336360
55.514,0.336415
55.515,0.336470
55.516,0.336526
55.517,0.336581
55.518,0.336636
55.519,0.336692
55.520,0.336747
55.521,0.336803
55.522,0.336858
55.523,0.336914
55.524,0.336969
55.525,0.337025
55.526,0.337080
55.527,0.337136
55.528,0.337191
55.529,0.337247
55.530,0.337303
55.531,0.337358
55.532,0.337414
55.533,0.337470
55.534,0.337525
55.535,0.337581
55.536,0.337637
55.537,0.337692
55.538,0.337748
55.539,0.337804
55.540,0.337860
55.541,0.337916
55.542,0.337972
55.543,0.338027
55.544,0.338083
55.545,0.338139
55.546,0.338195
55.547,0.338251
55.548,0.338307
55.549,0.338363
55.550,0.338419
55.551,0.338475
55.552,0.338531
55.553,0.338587
55.554,0.338643
55.555,0.338699
55.556,0.338755
55.557,0.338811
55.558,0.338867
55.559,0.338924
55.560,0.338980
55.561,0.339036
55.562,0.339092
55.563,0.339148
55.564,0.339205
55.565,0.339261
55.566,0.339317
55.567,0.339374
55.568,0.339430
55.569,0.339486
55.570,0.339543
55.571,0.339599
55.572,0.339655
55.573,0.339712
55.574,0.339768
55.575,0.339825
55.576,0.339881
55.577,0.339938
55.578,0.339994
55.579,0.340051
55.580,0.340107
55.581,0.340164
55.582,0.340220
55.583,0.340277
55.584,0.340334
55.585,0.340390
55.586,0.340447
55.587,0.340504
55.588,0.340560
55.589,0.340617
55.590,0.340674
55.591,0.340730
55.592,0.340787
55.593,0.340844
55.594,0.340901
55.595,0.340958
55.596,0.341014
55.597,0.341071
55.598,0.341128
55.599,0.341185
55.600,0.341242
55.601,0.341299
55.602,0.341356
55.603,0.341413
55.604,0.341470
55.605,0.341527
55.606,0.341584
55.607,0.341641
55.608,0.341698
55.609,0.341755
55.610,0.341812
55.611,0.341869
55.612,0.341927
55.613,0.341984
55.614,0.342041
55.615,0.342098
55.616,0.342155
55.617,0.342212
55.618,0.342270
55.619,0.342327
55.620,0.342384
55.621,0.342442
55.622,0.342499
55.623,0.342556
55.624,0.342614
55.625,0.342671
55.626,0.342728
55.627,0.342786
55.628,0.342843
55.629,0.342901
55.630,0.342958
55.631,0.343016
55.632,0.343073
55.633,0.343131
55.634,0.343188
55.635,0.343246
55.636,0.343303
55.637,0.343361
55.638,0.343419
55.639,0.343476
55.640,0.343534
55.641,0.343592
55.642,0.343649
55.643,0.343707
55.644,0.343765
55.645,0.343822
55.646,0.343880
55.647,0.343938
55.648,0.343996
55.649,0.344054
55.650,0.344111
55.651,0.344169
55.652,0.344227
55.653,0.344285
55.654,0.344343
55.655,0.344401
55.656,0.344459
55.657,0.344517
55.658,0.344575
55.659,0.344633
55.660,0.344691
55.661,0.344749
55.662,0.344807
55.663,0.344865
55.664,0.344923
55.665,0.344981
55.666,0.345039
55.667,0.345098
55.668,0.345156
55.669,0.345214
55.670,0.345272
55.671,0.345330
55.672,0.345389
55.673,0.345447
55.674,0.345505
55.675,0.345563
55.676,0.345622
55.677,0.345680
55.678,0.345738
55.679,0.345797
55.680,0.345855
55.681,0.345914
55.682,0.345972
55.683,0.346031
55.684,0.346089
55.685,0.346147
55.686,0.346206
55.687,0.346264
55.688,0.346323
55.689,0.346382
55.690,0.346440
55.691,0.346499
55.692,0.346557
55.693,0.346616
55.694,0.346675
55.695,0.346733
55.696,0.346792
55.697,0.346851
55.698,0.346909
55.699,0.346968
55.700,0.347027
55.701,0.347086
55.702,0.347144
55.703,0.347203
55.704,0.347262
55.705,0.347321
55.706,0.347380
55.707,0.347439
55.708,0.347498
55.709,0.347557
55.710,0.347615
55.711,0.347674
55.712,0.347733
55.713,0.347792
55.714,0.347851
55.715,0.347910
55.716,0.347969
55.717,0.348029
55.718,0.348088
55.719,0.348147
55.720,0.348206
55.721,0.348265
55.722,0.348324
55.723,0.348383
55.724,0.348443
55.725,0.348502
55.726,0.348561
55.727,0.348620
55.728,0.348679
55.729,0.348739
55.730,0.348798
55.731,0.348857
55.732,0.348917
55.733,0.348976
55.734,0.349035
55.735,0.349095
55.736,0.349154
55.737,0.349214
55.738,0.349273
55.739,0.349333
55.740,0.349392
55.741,0.349452
55.742,0.349511
55.743,0.349571
55.744,0.349630
55.745,0.349690
55.746,0.349749
55.747,0.349809
55.748,0.349869
55.749,0.349928
55.750,0.349988
55.751,0.350048
55.752,0.350107
55.753,0.350167
55.754,0.350227
55.755,0.350287
55.756,0.350346
55.757,0.350406
55.758,0.350466
55.759,0.350526
55.760,0.350586
55.761,0.350646
55.762,0.350705
55.763,0.350765
55.764,0.350825
55.765,0.350885
55.766,0.350945
55.767,0.351005
55.768,0.351065
55.769,0.351125
55.770,0.351185
55.771,0.351245
55.772,0.351305
55.773,0.351365
55.774,0.351425
55.775,0.351486
55.776,0.351546
55.777,0.351606
55.778,0.351666
55.779,0.351726
55.780,0.351786
55.781,0.351847
55.782,0.351907
55.783,0.351967
55.784,0.352027
55.785,0.352088
55.786,0.352148
55.787,0.352208
55.788,0.352269
55.789,0.352329
55.790,0.352389
55.791,0.352450
55.792,0.352510
55.793,0.352571
55.794,0.352631
55.795,0.352692
55.796,0.352752
55.797,0.352813
55.798,0.352873
55.799,0.352934
55.800,0.352994
55.801,0.353055
55.802,0.353116
55.803,0.353176
55.804,0.353237
55.805,0.353298
55.806,0.353358
55.807,0.353419
55.808,0.353480
55.809,0.353540
55.810,0.353601
55.811,0.353662
55.812,0.353723
55.813,0.353783
55.814,0.353844
55.815,0.353905
55.816,0.353966
55.817,0.354027
55.818,0.354088
55.819,0.354149
55.820,0.354210
55.821,0.354271
55.822,0.354331
55.823,0.354392
55.824,0.354453
55.825,0.354515
55.826,0.354576
55.827,0.354637
55.828,0.354698
55.829,0.354759
55.830,0.354820
55.831,0.354881
55.832,0.354942
55.833,0.355003
55.834,0.355064
55.835,0.355126
55.836,0.355187
55.837,0.355248
55.838,0.355309
55.839,0.355371
55.840,0.355432
55.841,0.355493
55.842,0.355555
55.843,0.355616
55.844,0.355677
55.845,0.355739
55.846,0.355800
55.847,0.355861
55.848,0.355923
55.849,0.355984
55.850,0.356046
55.851,0.356107
55.852,0.356169
55.853,0.356230
55.854,0.356292
55.855,0.356353
55.856,0.356415
55.857,0.356477
55.858,0.356538
55.859,0.356600
55.860,0.356661
55.861,0.356723
55.862,0.356785
55.863,0.356846
55.864,0.356908
55.865,0.356970
55.866,0.357032
55.867,0.357093
55.868,0.357155
55.869,0.357217
55.870,0.357279
55.871,0.357341
55.872,0.357403
55.873,0.357464
55.874,0.357526
55.875,0.357588
55.876,0.357650
55.877,0.357712
55.878,0.357774
55.879,0.357836
55.880,0.357898
55.881,0.357960
55.882,0.358022
55.883,0.358084
55.884,0.358146
55.885,0.358208
55.886,0.358270
55.887,0.358333
55.888,0.358395
55.889,0.358457
55.890,0.358519
55.891,0.358581
55.892,0.358643
55.893,0.358706
55.894,0.358768
55.895,0.358830
55.896,0.358892
55.897,0.358955
55.898,0.359017
55.899,0.359079
55.900,0.359142
55.901,0.359204
55.902,0.359267
55.903,0.359329
55.904,0.359391
55.905,0.359454
55.906,0.359516
55.907,0.359579
55.908,0.359641
55.909,0.359704
55.910,0.359766
55.911,0.359829
55.912,0.359891
55.913,0.359954
55.914,0.360017
55.915,0.360079
55.916,0.360142
55.917,0.360205
55.918,0.360267
55.919,0.360330
55.920,0.360393
55.921,0.360455
55.922,0.360518
55.923,0.360581
55.924,0.360644
55.925,0.360706
55.926,0.360769
55.927,0.360832
55.928,0.360895
55.929,0.360958
55.930,0.361021
55.931,0.361084
55.932,0.361146
55.933,0.361209
55.934,0.361272
55.935,0.361335
55.936,0.361398
55.937,0.361461
55.938,0.361524
55.939,0.361587
55.940,0.361650
55.941,0.361714
55.942,0.361777
55.943,0.361840
55.944,0.361903
55.945,0.361966
55.946,0.362029
55.947,0.362092
55.948,0.362156
55.949,0.362219
55.950,0.362282
55.951,0.362345
55.952,0.362409
55.953,0.362472
55.954,0.362535
55.955,0.362598
55.956,0.362662
55.957,0.362725
55.958,0.362788
55.959,0.362852
55.960,0.362915
55.961,0.362979
55.962,0.363042
55.963,0.363106
55.964,0.363169
55.965,0.363233
55.966,0.363296
55.967,0.363360
55.968,0.363423
55.969,0.363487
55.970,0.363550
55.971,0.363614
55.972,0.363678
55.973,0.363741
55.974,0.363805
55.975,0.363869
55.976,0.363932
55.977,0.363996
55.978,0.364060
55.979,0.364123
55.980,0.364187
55.981,0.364251
55.982,0.364315
55.983,0.364379
55.984,0.364442
55.985,0.364506
55.986,0.364570
55.987,0.364634
55.988,0.364698
55.989,0.364762
55.990,0.364826
55.991,0.364890
55.992,0.364954
55.993,0.365018
55.994,0.365082
55.995,0.365146
55.996,0.365210
55.997,0.365274
55.998,0.365338
55.999,0.365402
56.000,0.365466
56.001,0.365530
56.002,0.365594
56.003,0.365658
56.004,0.365723
56.005,0.365787
56.006,0.365851
56.007,0.365915
56.008,0.365979
56.009,0.366044
56.010,0.366108
56.011,0.366172
56.012,0.366237
56.013,0.366301
56.014,0.366365
56.015,0.366430
56.016,0.366494
56.017,0.366558
56.018,0.366623
56.019,0.366687
56.020,0.366752
56.021,0.366816
56.022,0.366881
56.023,0.366945
56.024,0.367010
56.025,0.367074
56.026,0.367139
56.027,0.367203
56.028,0.367268
56.029,0.367332
56.030,0.367397
56.031,0.367462
56.032,0.367526
56.033,0.367591
56.034,0.367656
56.035,0.367720
56.036,0.367785
56.037,0.367850
56.038,0.367915
56.039,0.367979
56.040,0.368044
56.041,0.368109
56.042,0.368174
56.043,0.368239
56.044,0.368304
56.045,0.368368
56.046,0.368433
56.047,0.368498
56.048,0.368563
56.049,0.368628
56.050,0.368693
56.051,0.368758
56.052,0.368823
56.053,0.368888
56.054,0.368953
56.055,0.369018
56.056,0.369083
56.057,0.369148
56.058,0.369213
56.059,0.369279
56.060,0.369344
56.061,0.369409
56.062,0.369474
56.063,0.369539
56.064,0.369604
56.065,0.369670
56.066,0.369735
56.067,0.369800
56.068,0.369865
56.069,0.369931
56.070,0.369996
56.071,0.370061
56.072,0.370127
56.073,0.370192
56.074,0.370257
56.075,0.370323
56.076,0.370388
56.077,0.370454
56.078,0.370519
56.079,0.370585
56.080,0.370650
56.081,0.370716
56.082,0.370781
56.083,0.370847
56.084,0.370912
56.085,0.370978
56.086,0.371043
56.087,0.371109
56.088,0.371174
56.089,0.371240
56.090,0.371306
56.091,0.371371
56.092,0.371437
56.093,0.371503
56.094,0.371568
56.095,0.371634
56.096,0.371700
56.097,0.371766
56.098,0.371832
56.099,0.371897
56.100,0.371963
56.101,0.372029
56.102,0.372095
56.103,0.372161
56.104,0.372227
56.105,0.372292
56.106,0.372358
56.107,0.372424
56.108,0.372490
56.109,0.372556
56.110,0.372622
56.111,0.372688
56.112,0.372754
56.113,0.372820
56.114,0.372886
56.115,0.372952
56.116,0.373018
56.117,0.373085
56.118,0.373151
56.119,0.373217
56.120,0.373283
56.121,0.373349
56.122,0.373415
56.123,0.373482
56.124,0.373548
56.125,0.373614
56.126,0.373680
56.127,0.373747
56.128,0.373813
56.129,0.373879
56.130,0.373945
56.131,0.374012
56.132,0.374078
56.133,0.374145
56.134,0.374211
56.135,0.374277
56.136,0.374344
56.137,0.374410
56.138,0.374477
56.139,0.374543
56.140,0.374610
56.141,0.374676
56.142,0.374743
56.143,0.374809
56.144,0.374876
56.145,0.374942
56.146,0.375009
56.147,0.375075
56.148,0.375142
56.149,0.375209
56.150,0.375275
56.151,0.375342
56.152,0.375409
56.153,0.375475
56.154,0.375542
56.155,0.375609
56.156,0.375676
56.157,0.375742
56.158,0.375809
56.159,0.375876
56.160,0.375943
56.161,0.376010
56.162,0.376077
56.163,0.376143
56.164,0.376210
56.165,0.376277
56.166,0.376344
56.167,0.376411
56.168,0.376478
56.169,0.376545
56.170,0.376612
56.171,0.376679
56.172,0.376746
56.173,0.376813
56.174,0.376880
56.175,0.376947
56.176,0.377014
56.177,0.377081
56.178,0.377149
56.179,0.377216
56.180,0.377283
56.181,0.377350
56.182,0.377417
56.183,0.377484
56.184,0.377552
56.185,0.377619
56.186,0.377686
56.187,0.377753
56.188,0.377821
56.189,0.377888
56.190,0.377955
56.191,0.378023
56.192,0.378090
56.193,0.378157
56.194,0.378225
56.195,0.378292
56.196,0.378360
56.197,0.378427
56.198,0.378494
56.199,0.378562
56.200,0.378629
56.201,0.378697
56.202,0.378764
56.203,0.378832
56.204,0.378899
56.205,0.378967
56.206,0.379035
56.207,0.379102
56.208,0.379170
56.209,0.379238
56.210,0.379305
56.211,0.379373
56.212,0.379440
56.213,0.379508
56.214,0.379576
56.215,0.379644
56.216,0.379711
56.217,0.379779
56.218,0.379847
56.219,0.379915
56.220,0.379983
56.221,0.380050
56.222,0.380118
56.223,0.380186
56.224,0.380254
56.225,0.380322
56.226,0.380390
56.227,0.380458
56.228,0.380526
56.229,0.380594
56.230,0.380662
56.231,0.380730
56.232,0.380798
56.233,0.380866
56.234,0.380934
56.235,0.381002
56.236,0.381070
56.237,0.381138
56.238,0.381206
56.239,0.381274
56.240,0.381342
56.241,0.381410
56.242,0.381479
56.243,0.381547
56.244,0.381615
56.245,0.381683
56.246,0.381751
56.247,0.381820
