Angle,Reflectance
55.000,0.003071
55.001,0.003075
55.002,0.003079
55.003,0.003083
55.004,0.003087
55.005,0.003091
55.006,0.003095
55.007,0.003098
55.008,0.003102
55.009,0.003106
55.010,0.003110
55.011,0.003114
55.012,0.003118
55.013,0.003122
55.014,0.003126
55.015,0.003130
55.016,0.003134
55.017,0.003138
55.018,0.003142
55.019,0.003146
55.020,0.003150
55.021,0.003154
55.022,0.003158
55.023,0.003162
55.024,0.003166
55.025,0.003170
55.026,0.003174
55.027,0.003178
55.028,0.003182
55.029,0.003186
55.030,0.003190
55.031,0.003194
55.032,0.003199
55.033,0.003203
55.034,0.003207
55.035,0.003211
55.036,0.003215
55.037,0.003219
55.038,0.003223
55.039,0.003227
55.040,0.003231
55.041,0.003235
55.042,0.003239
55.043,0.003243
55.044,0.003247
55.045,0.003252
55.046,0.003256
55.047,0.003260
55.048,0.003264
55.049,0.003268
55.050,0.003272
55.051,0.003276
55.052,0.003280
55.053,0.003284
55.054,0.003289
55.055,0.003293
55.056,0.003297
55.057,0.003301
55.058,0.003305
55.059,0.003309
55.060,0.003313
55.061,0.003318
55.062,0.003322
55.063,0.003326
55.064,0.003330
55.065,0.003334
55.066,0.003339
55.067,0.003343
55.068,0.003347
55.069,0.003351
55.070,0.003355
55.071,0.003359
55.072,0.003364
55.073,0.003368
55.074,0.003372
55.075,0.003376
55.076,0.003381
55.077,0.003385
55.078,0.003389
55.079,0.003393
55.080,0.003397
55.081,0.003402
55.082,0.003406
55.083,0.003410
55.084,0.003414
55.085,0.003419
55.086,0.003423
55.087,0.003427
55.088,0.003431
55.089,0.003436
55.090,0.003440
55.091,0.003444
55.092,0.003449
55.093,0.003453
55.094,0.003457
55.095,0.003461
55.096,0.003466
55.097,0.003470
55.098,0.003474
55.099,0.003479
55.100,0.003483
55.101,0.003487
55.102,0.003492
55.103,0.003496
55.104,0.003500
55.105,0.003505
55.106,0.003509
55.107,0.003513
55.108,0.003518
55.109,0.003522
55.110,0.003526
55.111,0.003531
55.112,0.003535
55.113,0.003539
55.114,0.003544
55.115,0.003548
55.116,0.003553
55.117,0.003557
55.118,0.003561
55.119,0.003566
55.120,0.003570
55.121,0.003575
55.122,0.003579
55.123,0.003583
55.124,0.003588
55.125,0.003592
55.126,0.003597
55.127,0.003601
55.128,0.003605
55.129,0.003610
55.130,0.003614
55.131,0.003619
55.132,0.003623
55.133,0.003628
55.134,0.003632
55.135,0.003637
55.136,0.003641
55.137,0.003645
55.138,0.003650
55.139,0.003654
55.140,0.003659
55.141,0.003663
55.142,0.003668
55.143,0.003672
55.144,0.003677
55.145,0.003681
55.146,0.003686
55.147,0.003690
55.148,0.003695
55.149,0.003699
55.150,0.003704
55.151,0.003708
55.152,0.003713
55.153,0.003717
55.154,0.003722
55.155,0.003727
55.156,0.003731
55.157,0.003736
55.158,0.003740
55.159,0.003745
55.160,0.003749
55.161,0.003754
55.162,0.003758
55.163,0.003763
55.164,0.003768
55.165,0.003772
55.166,0.003777
55.167,0.003781
55.168,0.003786
55.169,0.003790
55.170,0.003795
55.171,0.003800
55.172,0.003804
55.173,0.003809
55.174,0.003814
55.175,0.003818
55.176,0.003823
55.177,0.003827
55.178,0.003832
55.179,0.003837
55.180,0.003841
55.181,0.003846
55.182,0.003851
55.183,0.003855
55.184,0.003860
55.185,0.003865
55.186,0.003869
55.187,0.003874
55.188,0.003879
55.189,0.003883
55.190,0.003888
55.191,0.003893
55.192,0.003897
55.193,0.003902
55.194,0.003907
55.195,0.003911
55.196,0.003916
55.197,0.003921
55.198,0.003926
55.199,0.003930
55.200,0.003935
55.201,0.003940
55.202,0.003945
55.203,0.003949
55.204,0.003954
55.205,0.003959
55.206,0.003963
55.207,0.003968
55.208,0.003973
55.209,0.003978
55.210,0.003983
55.211,0.003987
55.212,0.003992
55.213,0.003997
55.214,0.004002
55.215,0.004006
55.216,0.004011
55.217,0.004016
55.218,0.004021
55.219,0.004026
55.220,0.004030
55.221,0.004035
55.222,0.004040
55.223,0.004045
55.224,0.004050
55.225,0.004055
55.226,0.004059
55.227,0.004064
55.228,0.004069
55.229,0.004074
55.230,0.004079
55.231,0.004084
55.232,0.004089
55.233,0.004093
55.234,0.004098
55.235,0.004103
55.236,0.004108
55.237,0.004113
55.238,0.004118
55.239,0.004123
55.240,0.004128
55.241,0.004132
55.242,0.004137
55.243,0.004142
55.244,0.004147
55.245,0.004152
55.246,0.004157
55.247,0.004162
55.248,0.004167
55.249,0.004172
55.250,0.004177
55.251,0.004182
55.252,0.004187
55.253,0.004192
55.254,0.004197
55.255,0.004202
55.256,0.004207
55.257,0.004212
55.258,0.004217
55.259,0.004221
55.260,0.004226
55.261,0.004231
55.262,0.004236
55.263,0.004241
55.264,0.004246
55.265,0.004251
55.266,0.004256
55.267,0.004261
55.268,0.004267
55.269,0.004272
55.270,0.004277
55.271,0.004282
55.272,0.004287
55.273,0.004292
55.274,0.004297
55.275,0.004302
55.276,0.004307
55.277,0.004312
55.278,0.004317
55.279,0.004322
55.280,0.004327
55.281,0.004332
55.282,0.004337
55.283,0.004342
55.284,0.004347
55.285,0.004353
55.286,0.004358
55.287,0.004363
55.288,0.004368
55.289,0.004373
55.290,0.004378
55.291,0.004383
55.292,0.004388
55.293,0.004393
55.294,0.004399
55.295,0.004404
55.296,0.004409
55.297,0.004414
55.298,0.004419
55.299,0.004424
55.300,0.004429
55.301,0.004435
55.302,0.004440
55.303,0.004445
55.304,0.004450
55.305,0.004455
55.306,0.004461
55.307,0.004466
55.308,0.004471
55.309,0.004476
55.310,0.004481
55.311,0.004487
55.312,0.004492
55.313,0.004497
55.314,0.004502
55.315,0.004507
55.316,0.004513
55.317,0.004518
55.318,0.004523
55.319,0.004528
55.320,0.004534
55.321,0.004539
55.322,0.004544
55.323,0.004549
55.324,0.004555
55.325,0.004560
55.326,0.004565
55.327,0.004571
55.328,0.004576
55.329,0.004581
55.330,0.004586
55.331,0.004592
55.332,0.004597
55.333,0.004602
55.334,0.004608
55.335,0.004613
55.336,0.004618
55.337,0.004624
55.338,0.004629
55.339,0.004634
55.340,0.004640
55.341,0.004645
55.342,0.004650
55.343,0.004656
55.344,0.004661
55.345,0.004667
55.346,0.004672
55.347,0.004677
55.348,0.004683
55.349,0.004688
55.350,0.004693
55.351,0.004699
55.352,0.004704
55.353,0.004710
55.354,0.004715
55.355,0.004720
55.356,0.004726
55.357,0.004731
55.358,0.004737
55.359,0.004742
55.360,0.004748
55.361,0.004753
55.362,0.004758
55.363,0.004764
55.364,0.004769
55.365,0.004775
55.366,0.004780
55.367,0.004786
55.368,0.004791
55.369,0.004797
55.370,0.004802
55.371,0.004808
55.372,0.004813
55.373,0.004819
55.374,0.004824
55.375,0.004830
55.376,0.004835
55.377,0.004841
55.378,0.004846
55.379,0.004852
55.380,0.004857
55.381,0.004863
55.382,0.004868
55.383,0.004874
55.384,0.004879
55.385,0.004885
55.386,0.004891
55.387,0.004896
55.388,0.004902
55.389,0.004907
55.390,0.004913
55.391,0.004918
55.392,0.004924
55.393,0.004930
55.394,0.004935
55.395,0.004941
55.396,0.004946
55.397,0.004952
55.398,0.004958
55.399,0.004963
55.400,0.004969
55.401,0.004975
55.402,0.004980
55.403,0.004986
55.404,0.004991
55.405,0.004997
55.406,0.005003
55.407,0.005008
55.408,0.005014
55.409,0.005020
55.410,0.005025
55.411,0.005031
55.412,0.005037
55.413,0.005042
55.414,0.005048
55.415,0.005054
55.416,0.005060
55.417,0.005065
55.418,0.005071
55.419,0.005077
55.420,0.005082
55.421,0.005088
55.422,0.005094
55.423,0.005100
55.424,0.005105
55.425,0.005111
55.426,0.005117
55.427,0.005123
55.428,0.005128
55.429,0.005134
55.430,0.005140
55.431,0.005146
55.432,0.005151
55.433,0.005157
55.434,0.005163
55.435,0.005169
55.436,0.005175
55.437,0.005180
55.438,0.005186
55.439,0.005192
55.440,0.005198
55.441,0.005204
55.442,0.005209
55.443,0.005215
55.444,0.005221
55.445,0.005227
55.446,0.005233
55.447,0.005239
55.448,0.005245
55.449,0.005250
55.450,0.005256
55.451,0.005262
55.452,0.005268
55.453,0.005274
55.454,0.005280
55.455,0.005286
55.456,0.005292
55.457,0.005297
55.458,0.005303
55.459,0.005309
55.460,0.005315
55.461,0.005321
55.462,0.005327
55.463,0.005333
55.464,0.005339
55.465,0.005345
55.466,0.005351
55.467,0.005357
55.468,0.005363
55.469,0.005369
55.470,0.005375
55.471,0.005381
55.472,0.005387
55.473,0.005393
55.474,0.005398
55.475,0.005404
55.476,0.005410
55.477,0.005416
55.478,0.005422
55.479,0.005428
55.480,0.005434
55.481,0.005441
55.482,0.005447
55.483,0.005453
55.484,0.005459
55.485,0.005465
55.486,0.005471
55.487,0.005477
55.488,0.005483
55.489,0.005489
55.490,0.005495
55.491,0.005501
55.492,0.005507
55.493,0.005513
55.494,0.005519
55.495,0.005525
55.496,0.005531
55.497,0.005537
55.498,0.005544
55.499,0.005550
55.500,0.005556
55.501,0.005562
55.502,0.005568
55.503,0.005574
55.504,0.005580
55.505,0.005586
55.506,0.005593
55.507,0.005599
55.508,0.005605
55.509,0.005611
55.510,0.005617
55.511,0.005623
55.512,0.005630
55.513,0.005636
55.514,0.005642
55.515,0.005648
55.516,0.005654
55.517,0.005661
55.518,0.005667
55.519,0.005673
55.520,0.005679
55.521,0.005685
55.522,0.005692
55.523,0.005698
55.524,0.005704
55.525,0.005710
55.526,0.005717
55.527,0.005723
55.528,0.005729
55.529,0.005735
55.530,0.005742
55.531,0.005748
55.532,0.005754
55.533,0.005760
55.534,0.005767
55.535,0.005773
55.536,0.005779
55.537,0.005786
55.538,0.005792
55.539,0.005798
55.540,0.005805
55.541,0.005811
55.542,0.005817
55.543,0.005823
55.544,0.005830
55.545,0.005836
55.546,0.005843
55.547,0.005849
55.548,0.005855
55.549,0.005862
55.550,0.005868
55.551,0.005874
55.552,0.005881
55.553,0.005887
55.554,0.005893
55.555,0.005900
55.556,0.005906
55.557,0.005913
55.558,0.005919
55.559,0.005926
55.560,0.005932
55.561,0.005938
55.562,0.005945
55.563,0.005951
55.564,0.005958
55.565,0.005964
55.566,0.005971
55.567,0.005977
55.568,0.005983
55.569,0.005990
55.570,0.005996
55.571,0.006003
55.572,0.006009
55.573,0.006016
55.574,0.006022
55.575,0.006029
55.576,0.006035
55.577,0.006042
55.578,0.006048
55.579,0.006055
55.580,0.006061
55.581,0.006068
55.582,0.006074
55.583,0.006081
55.584,0.006088
55.585,0.006094
55.586,0.006101
55.587,0.006107
55.588,0.006114
55.589,0.006120
55.590,0.006127
55.591,0.006134
55.592,0.006140
55.593,0.006147
55.594,0.006153
55.595,0.006160
55.596,0.006167
55.597,0.006173
55.598,0.006180
55.599,0.006186
55.600,0.006193
55.601,0.006200
55.602,0.006206
55.603,0.006213
55.604,0.006220
55.605,0.006226
55.606,0.006233
55.607,0.006240
55.608,0.006246
55.609,0.006253
55.610,0.006260
55.611,0.006266
55.612,0.006273
55.613,0.006280
55.614,0.006286
55.615,0.006293
55.616,0.006300
55.617,0.006307
55.618,0.006313
55.619,0.006320
55.620,0.006327
55.621,0.006333
55.622,0.006340
55.623,0.006347
55.624,0.006354
55.625,0.006361
55.626,0.006367
55.627,0.006374
55.628,0.006381
55.629,0.006388
55.630,0.006394
55.631,0.006401
55.632,0.006408
55.633,0.006415
55.634,0.006422
55.635,0.006428
55.636,0.006435
55.637,0.006442
55.638,0.006449
55.639,0.006456
55.640,0.006463
55.641,0.006469
55.642,0.006476
55.643,0.006483
55.644,0.006490
55.645,0.006497
55.646,0.006504
55.647,0.006511
55.648,0.006518
55.649,0.006524
55.650,0.006531
55.651,0.006538
55.652,0.006545
55.653,0.006552
55.654,0.006559
55.655,0.006566
55.656,0.006573
55.657,0.006580
55.658,0.006587
55.659,0.006594
55.660,0.006601
55.661,0.006608
55.662,0.006615
55.663,0.006622
55.664,0.006628
55.665,0.006635
55.666,0.006642
55.667,0.006649
55.668,0.006656
55.669,0.006663
55.670,0.006670
55.671,0.006677
55.672,0.006684
55.673,0.006692
55.674,0.006699
55.675,0.006706
55.676,0.006713
55.677,0.006720
55.678,0.006727
55.679,0.006734
55.680,0.006741
55.681,0.006748
55.682,0.006755
55.683,0.006762
55.684,0.006769
55.685,0.006776
55.686,0.006783
55.687,0.006790
55.688,0.006798
55.689,0.006805
55.690,0.006812
55.691,0.006819
55.692,0.006826
55.693,0.006833
55.694,0.006840
55.695,0.006847
55.696,0.006855
55.697,0.006862
55.698,0.006869
55.699,0.006876
55.700,0.006883
55.701,0.006890
55.702,0.006898
55.703,0.006905
55.704,0.006912
55.705,0.006919
55.706,0.006926
55.707,0.006934
55.708,0.006941
55.709,0.006948
55.710,0.006955
55.711,0.006963
55.712,0.006970
55.713,0.006977
55.714,0.006984
55.715,0.006992
55.716,0.006999
55.717,0.007006
55.718,0.007013
55.719,0.007021
55.720,0.007028
55.721,0.007035
55.722,0.007043
55.723,0.007050
55.724,0.007057
55.725,0.007064
55.726,0.007072
55.727,0.007079
55.728,0.007086
55.729,0.007094
55.730,0.007101
55.731,0.007108
55.732,0.007116
55.733,0.007123
55.734,0.007131
55.735,0.007138
55.736,0.007145
55.737,0.007153
55.738,0.007160
55.739,0.007167
55.740,0.007175
55.741,0.007182
55.742,0.007190
55.743,0.007197
55.744,0.007205
55.745,0.007212
55.746,0.007219
55.747,0.007227
55.748,0.007234
55.749,0.007242
55.750,0.007249
55.751,0.007257
55.752,0.007264
55.753,0.007272
55.754,0.007279
55.755,0.007287
55.756,0.007294
55.757,0.007302
55.758,0.007309
55.759,0.007317
55.760,0.007324
55.761,0.007332
55.762,0.007339
55.763,0.007347
55.764,0.007354
55.765,0.007362
55.766,0.007369
55.767,0.007377
55.768,0.007384
55.769,0.007392
55.770,0.007400
55.771,0.007407
55.772,0.007415
55.773,0.007422
55.774,0.007430
55.775,0.007438
55.776,0.007445
55.777,0.007453
55.778,0.007460
55.779,0.007468
55.780,0.007476
55.781,0.007483
55.782,0.007491
55.783,0.007499
55.784,0.007506
55.785,0.007514
55.786,0.007522
55.787,0.007529
55.788,0.007537
55.789,0.007545
55.790,0.007552
55.791,0.007560
55.792,0.007568
55.793,0.007575
55.794,0.007583
55.795,0.007591
55.796,0.007599
55.797,0.007606
55.798,0.007614
55.799,0.007622
55.800,0.007629
55.801,0.007637
55.802,0.007645
55.803,0.007653
55.804,0.007661
55.805,0.007668
55.806,0.007676
55.807,0.007684
55.808,0.007692
55.809,0.007699
55.810,0.007707
55.811,0.007715
55.812,0.007723
55.813,0.007731
55.814,0.007739
55.815,0.007746
55.816,0.007754
55.817,0.007762
55.818,0.007770
55.819,0.007778
55.820,0.007786
55.821,0.007794
55.822,0.007801
55.823,0.007809
55.824,0.007817
55.825,0.007825
55.826,0.007833
55.827,0.007841
55.828,0.007849
55.829,0.007857
55.830,0.007865
55.831,0.007873
55.832,0.007881
55.833,0.007888
55.834,0.007896
55.835,0.007904
55.836,0.007912
55.837,0.007920
55.838,0.007928
55.839,0.007936
55.840,0.007944
55.841,0.007952
55.842,0.007960
55.843,0.007968
55.844,0.007976
55.845,0.007984
55.846,0.007992
55.847,0.008000
55.848,0.008008
55.849,0.008016
55.850,0.008024
55.851,0.008033
55.852,0.008041
55.853,0.008049
55.854,0.008057
55.855,0.008065
55.856,0.008073
55.857,0.008081
55.858,0.008089
55.859,0.008097
55.860,0.008105
55.861,0.008113
55.862,0.008121
55.863,0.008130
55.864,0.008138
55.865,0.008146
55.866,0.008154
55.867,0.008162
55.868,0.008170
55.869,0.008178
55.870,0.008187
55.871,0.008195
55.872,0.008203
55.873,0.008211
55.874,0.008219
55.875,0.008228
55.876,0.008236
55.877,0.008244
55.878,0.008252
55.879,0.008260
55.880,0.008269
55.881,0.008277
55.882,0.008285
55.883,0.008293
55.884,0.008302
55.885,0.008310
55.886,0.008318
55.887,0.008326
55.888,0.008335
55.889,0.008343
55.890,0.008351
55.891,0.008360
55.892,0.008368
55.893,0.008376
55.894,0.008385
55.895,0.008393
55.896,0.008401
55.897,0.008410
55.898,0.008418
55.899,0.008426
55.900,0.008435
55.901,0.008443
55.902,0.008451
55.903,0.008460
55.904,0.008468
55.905,0.008476
55.906,0.008485
55.907,0.008493
55.908,0.008502
55.909,0.008510
55.910,0.008518
55.911,0.008527
55.912,0.008535
55.913,0.008544
55.914,0.008552
55.915,0.008561
55.916,0.008569
55.917,0.008577
55.918,0.008586
55.919,0.008594
55.920,0.008603
55.921,0.008611
55.922,0.008620
55.923,0.008628
55.924,0.008637
55.925,0.008645
55.926,0.008654
55.927,0.008662
55.928,0.008671
55.929,0.008679
55.930,0.008688
55.931,0.008697
55.932,0.008705
55.933,0.008714
55.934,0.008722
55.935,0.008731
55.936,0.008739
55.937,0.008748
55.938,0.008757
55.939,0.008765
55.940,0.008774
55.941,0.008782
55.942,0.008791
55.943,0.008800
55.944,0.008808
55.945,0.008817
55.946,0.008825
55.947,0.008834
55.948,0.008843
55.949,0.008851
55.950,0.008860
55.951,0.008869
55.952,0.008877
55.953,0.008886
55.954,0.008895
55.955,0.008904
55.956,0.008912
55.957,0.008921
55.958,0.008930
55.959,0.008938
55.960,0.008947
55.961,0.008956
55.962,0.008965
55.963,0.008973
55.964,0.008982
55.965,0.008991
55.966,0.009000
55.967,0.009008
55.968,0.009017
55.969,0.009026
55.970,0.009035
55.971,0.009044
55.972,0.009052
55.973,0.009061
55.974,0.009070
55.975,0.009079
55.976,0.009088
55.977,0.009096
55.978,0.009105
55.979,0.009114
55.980,0.009123
55.981,0.009132
55.982,0.009141
55.983,0.009150
55.984,0.009159
55.985,0.009167
55.986,0.009176
55.987,0.009185
55.988,0.009194
55.989,0.009203
55.990,0.009212
55.991,0.009221
55.992,0.009230
55.993,0.009239
55.994,0.009248
55.995,0.009257
55.996,0.009266
55.997,0.009275
55.998,0.009284
55.999,0.009293
56.000,0.009302
56.001,0.009311
56.002,0.009320
56.003,0.009329
56.004,0.009338
56.005,0.009347
56.006,0.009356
56.007,0.009365
56.008,0.009374
56.009,0.009383
56.010,0.009392
56.011,0.009401
56.012,0.009410
56.013,0.009419
56.014,0.009428
56.015,0.009437
56.016,0.009446
56.017,0.009455
56.018,0.009464
56.019,0.009474
56.020,0.009483
56.021,0.009492
56.022,0.009501
56.023,0.009510
56.024,0.009519
56.025,0.009528
56.026,0.009537
56.027,0.009547
56.028,0.009556
56.029,0.009565
56.030,0.009574
56.031,0.009583
56.032,0.009593
56.033,0.009602
56.034,0.009611
56.035,0.009620
56.036,0.009629
56.037,0.009639
56.038,0.009648
56.039,0.009657
56.040,0.009666
56.041,0.009676
56.042,0.009685
56.043,0.009694
56.044,0.009703
56.045,0.009713
56.046,0.009722
56.047,0.009731
56.048,0.009741
56.049,0.009750
56.050,0.009759
56.051,0.009769
56.052,0.009778
56.053,0.009787
56.054,0.009797
56.055,0.009806
56.056,0.009815
56.057,0.009825
56.058,0.009834
56.059,0.009843
56.060,0.009853
56.061,0.009862
56.062,0.009872
56.063,0.009881
56.064,0.009890
56.065,0.009900
56.066,0.009909
56.067,0.009919
56.068,0.009928
56.069,0.009937
56.070,0.009947
56.071,0.009956
56.072,0.009966
56.073,0.009975
56.074,0.009985
56.075,0.009994
56.076,0.010004
56.077,0.010013
56.078,0.010023
56.079,0.010032
56.080,0.010042
56.081,0.010051
56.082,0.010061
56.083,0.010070
56.084,0.010080
56.085,0.010089
56.086,0.010099
56.087,0.010109
56.088,0.010118
56.089,0.010128
56.090,0.010137
56.091,0.010147
56.092,0.010157
56.093,0.010166
56.094,0.010176
56.095,0.010185
56.096,0.010195
56.097,0.010205
56.098,0.010214
56.099,0.010224
56.100,0.010234
56.101,0.010243
56.102,0.010253
56.103,0.010263
56.104,0.010272
56.105,0.010282
56.106,0.010292
56.107,0.010301
56.108,0.010311
56.109,0.010321
56.110,0.010330
56.111,0.010340
56.112,0.010350
56.113,0.010360
56.114,0.010369
56.115,0.010379
56.116,0.010389
56.117,0.010399
56.118,0.010408
56.119,0.010418
56.120,0.010428
56.121,0.010438
56.122,0.010448
56.123,0.010457
56.124,0.010467
56.125,0.010477
56.126,0.010487
56.127,0.010497
56.128,0.010507
56.129,0.010516
56.130,0.010526
56.131,0.010536
56.132,0.010546
56.133,0.010556
56.134,0.010566
56.135,0.010576
56.136,0.010586
56.137,0.010596
56.138,0.010605
56.139,0.010615
56.140,0.010625
56.141,0.010635
56.142,0.010645
56.143,0.010655
56.144,0.010665
56.145,0.010675
56.146,0.010685
56.147,0.010695
56.148,0.010705
56.149,0.010715
56.150,0.010725
56.151,0.010735
56.152,0.010745
56.153,0.010755
56.154,0.010765
56.155,0.010775
56.156,0.010785
56.157,0.010795
56.158,0.010805
56.159,0.010815
56.160,0.010825
56.161,0.010835
56.162,0.010845
56.163,0.010856
56.164,0.010866
56.165,0.010876
56.166,0.010886
56.167,0.010896
56.168,0.010906
56.169,0.010916
56.170,0.010926
56.171,0.010936
56.172,0.010947
56.173,0.010957
56.174,0.010967
56.175,0.010977
56.176,0.010987
56.177,0.010997
56.178,0.011008
56.179,0.011018
56.180,0.011028
56.181,0.011038
56.182,0.011049
56.183,0.011059
56.184,0.011069
56.185,0.011079
56.186,0.011090
56.187,0.011100
56.188,0.011110
56.189,0.011120
56.190,0.011131
56.191,0.011141
56.192,0.011151
56.193,0.011161
56.194,0.011172
56.195,0.011182
56.196,0.011192
56.197,0.011203
56.198,0.011213
56.199,0.011223
56.200,0.011234
56.201,0.011244
56.202,0.011254
56.203,0.011265
56.204,0.011275
56.205,0.011286
56.206,0.011296
56.207,0.011306
56.208,0.011317
56.209,0.011327
56.210,0.011338
56.211,0.011348
56.212,0.011359
56.213,0.011369
56.214,0.011379
56.215,0.011390
56.216,0.011400
56.217,0.011411
56.218,0.011421
56.219,0.011432
56.220,0.011442
56.221,0.011453
56.222,0.011463
56.223,0.011474
56.224,0.011484
56.225,0.011495
56.226,0.011505
56.227,0.011516
56.228,0.011526
56.229,0.011537
56.230,0.011548
56.231,0.011558
56.232,0.011569
56.233,0.011579
56.234,0.011590
56.235,0.011601
56.236,0.011611
56.237,0.011622
56.238,0.011632
56.239,0.011643
56.240,0.011654
56.241,0.011664
56.242,0.011675
56.243,0.011686
56.244,0.011696
56.245,0.011707
56.246,0.011718
56.247,0.011728
