Angle,Reflectance
55.000,0.199235
55.001,0.199265
55.002,0.199294
55.003,0.199324
55.004,0.199353
55.005,0.199382
55.006,0.199412
55.007,0.199441
55.008,0.199471
55.009,0.199501
55.010,0.199530
55.011,0.199560
55.012,0.199589
55.013,0.199619
55.014,0.199649
55.015,0.199678
55.016,0.199708
55.017,0.199738
55.018,0.199767
55.019,0.199797
55.020,0.199827
55.021,0.199856
55.022,0.199886
55.023,0.199916
55.024,0.199946
55.025,0.199976
55.026,0.200006
55.027,0.200035
55.028,0.200065
55.029,0.200095
55.030,0.200125
55.031,0.200155
55.032,0.200185
55.033,0.200215
55.034,0.200245
55.035,0.200275
55.036,0.200305
55.037,0.200335
55.038,0.200365
55.039,0.200395
55.040,0.200425
55.041,0.200455
55.042,0.200485
55.043,0.200516
55.044,0.200546
55.045,0.200576
55.046,0.200606
55.047,0.200636
55.048,0.200667
55.049,0.200697
55.050,0.200727
55.051,0.200757
55.052,0.200788
55.053,0.200818
55.054,0.200848
55.055,0.200879
55.056,0.200909
55.057,0.200940
55.058,0.200970
55.059,0.201000
55.060,0.201031
55.061,0.201061
55.062,0.201092
55.063,0.201122
55.064,0.201153
55.065,0.201183
55.066,0.201214
55.067,0.201245
55.068,0.201275
55.069,0.201306
55.070,0.201336
55.071,0.201367
55.072,0.201398
55.073,0.201428
55.074,0.201459
55.075,0.201490
55.076,0.201521
55.077,0.201551
55.078,0.201582
55.079,0.201613
55.080,0.201644
55.081,0.201675
55.082,0.201705
55.083,0.201736
55.084,0.201767
55.085,0.201798
55.086,0.201829
55.087,0.201860
55.088,0.201891
55.089,0.201922
55.090,0.201953
55.091,0.201984
55.092,0.202015
55.093,0.202046
55.094,0.202077
55.095,0.202108
55.096,0.202139
55.097,0.202170
55.098,0.202201
55.099,0.202233
55.100,0.202264
55.101,0.202295
55.102,0.202326
55.103,0.202357
55.104,0.202389
55.105,0.202420
55.106,0.202451
55.107,0.202482
55.108,0.202514
55.109,0.202545
55.110,0.202576
55.111,0.202608
55.112,0.202639
55.113,0.202671
55.114,0.202702
55.115,0.202734
55.116,0.202765
55.117,0.202796
55.118,0.202828
55.119,0.202859
55.120,0.202891
55.121,0.202923
55.122,0.202954
55.123,0.202986
55.124,0.203017
55.125,0.203049
55.126,0.203081
55.127,0.203112
55.128,0.203144
55.129,0.203176
55.130,0.203207
55.131,0.203239
55.132,0.203271
55.133,0.203303
55.134,0.203334
55.135,0.203366
55.136,0.203398
55.137,0.203430
55.138,0.203462
55.139,0.203494
55.140,0.203525
55.141,0.203557
55.142,0.203589
55.143,0.203621
55.144,0.203653
55.145,0.203685
55.146,0.203717
55.147,0.203749
55.148,0.203781
55.149,0.203813
55.150,0.203845
55.151,0.203877
55.152,0.203910
55.153,0.203942
55.154,0.203974
55.155,0.204006
55.156,0.204038
55.157,0.204070
55.158,0.204103
55.159,0.204135
55.160,0.204167
55.161,0.204199
55.162,0.204232
55.163,0.204264
55.164,0.204296
55.165,0.204329
55.166,0.204361
55.167,0.204393
55.168,0.204426
55.169,0.204458
55.170,0.204491
55.171,0.204523
55.172,0.204556
55.173,0.204588
55.174,0.204621
55.175,0.204653
55.176,0.204686
55.177,0.204718
55.178,0.204751
55.179,0.204783
55.180,0.204816
55.181,0.204849
55.182,0.204881
55.183,0.204914
55.184,0.204947
55.185,0.204979
55.186,0.205012
55.187,0.205045
55.188,0.205078
55.189,0.205110
55.190,0.205143
55.191,0.205176
55.192,0.205209
55.193,0.205242
55.194,0.205275
55.195,0.205307
55.196,0.205340
55.197,0.205373
55.198,0.205406
55.199,0.205439
55.200,0.205472
55.201,0.205505
55.202,0.205538
55.203,0.205571
55.204,0.205604
55.205,0.205637
55.206,0.205670
55.207,0.205704
55.208,0.205737
55.209,0.205770
55.210,0.205803
55.211,0.205836
55.212,0.205869
55.213,0.205903
55.214,0.205936
55.215,0.205969
55.216,0.206002
55.217,0.206036
55.218,0.206069
55.219,0.206102
55.220,0.206136
55.221,0.206169
55.222,0.206202
55.223,0.206236
55.224,0.206269
55.225,0.206303
55.226,0.206336
55.227,0.206369
55.228,0.206403
55.229,0.206436
55.230,0.206470
55.231,0.206504
55.232,0.206537
55.233,0.206571
55.234,0.206604
55.235,0.206638
55.236,0.206672
55.237,0.206705
55.238,0.206739
55.239,0.206773
55.240,0.206806
55.241,0.206840
55.242,0.206874
55.243,0.206908
55.244,0.206941
55.245,0.206975
55.246,0.207009
55.247,0.207043
55.248,0.207077
55.249,0.207111
55.250,0.207144
55.251,0.207178
55.252,0.207212
55.253,0.207246
55.254,0.207280
55.255,0.207314
55.256,0.207348
55.257,0.207382
55.258,0.207416
55.259,0.207450
55.260,0.207484
55.261,0.207518
55.262,0.207553
55.263,0.207587
55.264,0.207621
55.265,0.207655
55.266,0.207689
55.267,0.207723
55.268,0.207758
55.269,0.207792
55.270,0.207826
55.271,0.207860
55.272,0.207895
55.273,0.207929
55.274,0.207963
55.275,0.207998
55.276,0.208032
55.277,0.208066
55.278,0.208101
55.279,0.208135
55.280,0.208170
55.281,0.208204
55.282,0.208239
55.283,0.208273
55.284,0.208308
55.285,0.208342
55.286,0.208377
55.287,0.208411
55.288,0.208446
55.289,0.208480
55.290,0.208515
55.291,0.208550
55.292,0.208584
55.293,0.208619
55.294,0.208654
55.295,0.208688
55.296,0.208723
55.297,0.208758
55.298,0.208793
55.299,0.208828
55.300,0.208862
55.301,0.208897
55.302,0.208932
55.303,0.208967
55.304,0.209002
55.305,0.209037
55.306,0.209072
55.307,0.209107
55.308,0.209141
55.309,0.209176
55.310,0.209211
55.311,0.209246
55.312,0.209281
55.313,0.209317
55.314,0.209352
55.315,0.209387
55.316,0.209422
55.317,0.209457
55.318,0.209492
55.319,0.209527
55.320,0.209562
55.321,0.209598
55.322,0.209633
55.323,0.209668
55.324,0.209703
55.325,0.209739
55.326,0.209774
55.327,0.209809
55.328,0.209844
55.329,0.209880
55.330,0.209915
55.331,0.209951
55.332,0.209986
55.333,0.210021
55.334,0.210057
55.335,0.210092
55.336,0.210128
55.337,0.210163
55.338,0.210199
55.339,0.210234
55.340,0.210270
55.341,0.210305
55.342,0.210341
55.343,0.210376
55.344,0.210412
55.345,0.210448
55.346,0.210483
55.347,0.210519
55.348,0.210555
55.349,0.210590
55.350,0.210626
55.351,0.210662
55.352,0.210698
55.353,0.210733
55.354,0.210769
55.355,0.210805
55.356,0.210841
55.357,0.210877
55.358,0.210913
55.359,0.210949
55.360,0.210984
55.361,0.211020
55.362,0.211056
55.363,0.211092
55.364,0.211128
55.365,0.211164
55.366,0.211200
55.367,0.211236
55.368,0.211272
55.369,0.211309
55.370,0.211345
55.371,0.211381
55.372,0.211417
55.373,0.211453
55.374,0.211489
55.375,0.211525
55.376,0.211562
55.377,0.211598
55.378,0.211634
55.379,0.211670
55.380,0.211707
55.381,0.211743
55.382,0.211779
55.383,0.211816
55.384,0.211852
55.385,0.211888
55.386,0.211925
55.387,0.211961
55.388,0.211998
55.389,0.212034
55.390,0.212070
55.391,0.212107
55.392,0.212143
55.393,0.212180
55.394,0.212216
55.395,0.212253
55.396,0.212290
55.397,0.212326
55.398,0.212363
55.399,0.212399
55.400,0.212436
55.401,0.212473
55.402,0.212509
55.403,0.212546
55.404,0.212583
55.405,0.212620
55.406,0.212656
55.407,0.212693
55.408,0.212730
55.409,0.212767
55.410,0.212804
55.411,0.212840
55.412,0.212877
55.413,0.212914
55.414,0.212951
55.415,0.212988
55.416,0.213025
55.417,0.213062
55.418,0.213099
55.419,0.213136
55.420,0.213173
55.421,0.213210
55.422,0.213247
55.423,0.213284
55.424,0.213321
55.425,0.213358
55.426,0.213395
55.427,0.213433
55.428,0.213470
55.429,0.213507
55.430,0.213544
55.431,0.213581
55.432,0.213619
55.433,0.213656
55.434,0.213693
55.435,0.213731
55.436,0.213768
55.437,0.213805
55.438,0.213843
55.439,0.213880
55.440,0.213917
55.441,0.213955
55.442,0.213992
55.443,0.214030
55.444,0.214067
55.445,0.214105
55.446,0.214142
55.447,0.214180
55.448,0.214217
55.449,0.214255
55.450,0.214292
55.451,0.214330
55.452,0.214367
55.453,0.214405
55.454,0.214443
55.455,0.214480
55.456,0.214518
55.457,0.214556
55.458,0.214593
55.459,0.214631
55.460,0.214669
55.461,0.214707
55.462,0.214745
55.463,0.214782
55.464,0.214820
55.465,0.214858
55.466,0.214896
55.467,0.214934
55.468,0.214972
55.469,0.215010
55.470,0.215048
55.471,0.215086
55.472,0.215124
55.473,0.215162
55.474,0.215200
55.475,0.215238
55.476,0.215276
55.477,0.215314
55.478,0.215352
55.479,0.215390
55.480,0.215428
55.481,0.215466
55.482,0.215504
55.483,0.215543
55.484,0.215581
55.485,0.215619
55.486,0.215657
55.487,0.215696
55.488,0.215734
55.489,0.215772
55.490,0.215810
55.491,0.215849
55.492,0.215887
55.493,0.215926
55.494,0.215964
55.495,0.216002
55.496,0.216041
55.497,0.216079
55.498,0.216118
55.499,0.216156
55.500,0.216195
55.501,0.216233
55.502,0.216272
55.503,0.216310
55.504,0.216349
55.505,0.216387
55.506,0.216426
55.507,0.216465
55.508,0.216503
55.509,0.216542
55.510,0.216581
55.511,0.216619
55.512,0.216658
55.513,0.216697
55.514,0.216736
55.515,0.216774
55.516,0.216813
55.517,0.216852
55.518,0.216891
55.519,0.216930
55.520,0.216969
55.521,0.217008
55.522,0.217046
55.523,0.217085
55.524,0.217124
55.525,0.217163
55.526,0.217202
55.527,0.217241
55.528,0.217280
55.529,0.217319
55.530,0.217358
55.531,0.217398
55.532,0.217437
55.533,0.217476
55.534,0.217515
55.535,0.217554
55.536,0.217593
55.537,0.217632
55.538,0.217672
55.539,0.217711
55.540,0.217750
55.541,0.217789
55.542,0.217829
55.543,0.217868
55.544,0.217907
55.545,0.217947
55.546,0.217986
55.547,0.218025
55.548,0.218065
55.549,0.218104
55.550,0.218144
55.551,0.218183
55.552,0.218223
55.553,0.218262
55.554,0.218302
55.555,0.218341
55.556,0.218381
55.557,0.218420
55.558,0.218460
55.559,0.218499
55.560,0.218539
55.561,0.218579
55.562,0.218618
55.563,0.218658
55.564,0.218698
55.565,0.218737
55.566,0.218777
55.567,0.218817
55.568,0.218857
55.569,0.218896
55.570,0.218936
55.571,0.218976
55.572,0.219016
55.573,0.219056
55.574,0.219096
55.575,0.219136
55.576,0.219175
55.577,0.219215
55.578,0.219255
55.579,0.219295
55.580,0.219335
55.581,0.219375
55.582,0.219415
55.583,0.219455
55.584,0.219496
55.585,0.219536
55.586,0.219576
55.587,0.219616
55.588,0.219656
55.589,0.219696
55.590,0.219736
55.591,0.219777
55.592,0.219817
55.593,0.219857
55.594,0.219897
55.595,0.219938
55.596,0.219978
55.597,0.220018
55.598,0.220058
55.599,0.220099
55.600,0.220139
55.601,0.220180
55.602,0.220220
55.603,0.220260
55.604,0.220301
55.605,0.220341
55.606,0.220382
55.607,0.220422
55.608,0.220463
55.609,0.220503
55.610,0.220544
55.611,0.220584
55.612,0.220625
55.613,0.220666
55.614,0.220706
55.615,0.220747
55.616,0.220788
55.617,0.220828
55.618,0.220869
55.619,0.220910
55.620,0.220950
55.621,0.220991
55.622,0.221032
55.623,0.221073
55.624,0.221114
55.625,0.221154
55.626,0.221195
55.627,0.221236
55.628,0.221277
55.629,0.221318
55.630,0.221359
55.631,0.221400
55.632,0.221441
55.633,0.221482
55.634,0.221523
55.635,0.221564
55.636,0.221605
55.637,0.221646
55.638,0.221687
55.639,0.221728
55.640,0.221769
55.641,0.221810
55.642,0.221851
55.643,0.221893
55.644,0.221934
55.645,0.221975
55.646,0.222016
55.647,0.222057
55.648,0.222099
55.649,0.222140
55.650,0.222181
55.651,0.222223
55.652,0.222264
55.653,0.222305
55.654,0.222347
55.655,0.222388
55.656,0.222430
55.657,0.222471
55.658,0.222512
55.659,0.222554
55.660,0.222595
55.661,0.222637
55.662,0.222678
55.663,0.222720
55.664,0.222762
55.665,0.222803
55.666,0.222845
55.667,0.222886
55.668,0.222928
55.669,0.222970
55.670,0.223011
55.671,0.223053
55.672,0.223095
55.673,0.223136
55.674,0.223178
55.675,0.223220
55.676,0.223262
55.677,0.223304
55.678,0.223345
55.679,0.223387
55.680,0.223429
55.681,0.223471
55.682,0.223513
55.683,0.223555
55.684,0.223597
55.685,0.223639
55.686,0.223681
55.687,0.223723
55.688,0.223765
55.689,0.223807
55.690,0.223849
55.691,0.223891
55.692,0.223933
55.693,0.223975
55.694,0.224017
55.695,0.224059
55.696,0.224101
55.697,0.224144
55.698,0.224186
55.699,0.224228
55.700,0.224270
55.701,0.224312
55.702,0.224355
55.703,0.224397
55.704,0.224439
55.705,0.224482
55.706,0.224524
55.707,0.224566
55.708,0.224609
55.709,0.224651
55.710,0.224694
55.711,0.224736
55.712,0.224778
55.713,0.224821
55.714,0.224863
55.715,0.224906
55.716,0.224948
55.717,0.224991
55.718,0.225034
55.719,0.225076
55.720,0.225119
55.721,0.225161
55.722,0.225204
55.723,0.225247
55.724,0.225289
55.725,0.225332
55.726,0.225375
55.727,0.225418
55.728,0.225460
55.729,0.225503
55.730,0.225546
55.731,0.225589
55.732,0.225632
55.733,0.225674
55.734,0.225717
55.735,0.225760
55.736,0.225803
55.737,0.225846
55.738,0.225889
55.739,0.225932
55.740,0.225975
55.741,0.226018
55.742,0.226061
55.743,0.226104
55.744,0.226147
55.745,0.226190
55.746,0.226233
55.747,0.226276
55.748,0.226319
55.749,0.226363
55.750,0.226406
55.751,0.226449
55.752,0.226492
55.753,0.226535
55.754,0.226579
55.755,0.226622
55.756,0.226665
55.757,0.226708
55.758,0.226752
55.759,0.226795
55.760,0.226838
55.761,0.226882
55.762,0.226925
55.763,0.226969
55.764,0.227012
55.765,0.227056
55.766,0.227099
55.767,0.227143
55.768,0.227186
55.769,0.227230
55.770,0.227273
55.771,0.227317
55.772,0.227360
55.773,0.227404
55.774,0.227447
55.775,0.227491
55.776,0.227535
55.777,0.227578
55.778,0.227622
55.779,0.227666
55.780,0.227710
55.781,0.227753
55.782,0.227797
55.783,0.227841
55.784,0.227885
55.785,0.227928
55.786,0.227972
55.787,0.228016
55.788,0.228060
55.789,0.228104
55.790,0.228148
55.791,0.228192
55.792,0.228236
55.793,0.228280
55.794,0.228324
55.795,0.228368
55.796,0.228412
55.797,0.228456
55.798,0.228500
55.799,0.228544
55.800,0.228588
55.801,0.228632
55.802,0.228676
55.803,0.228720
55.804,0.228765
55.805,0.228809
55.806,0.228853
55.807,0.228897
55.808,0.228942
55.809,0.228986
55.810,0.229030
55.811,0.229074
55.812,0.229119
55.813,0.229163
55.814,0.229207
55.815,0.229252
55.816,0.229296
55.817,0.229341
55.818,0.229385
55.819,0.229430
55.820,0.229474
55.821,0.229519
55.822,0.229563
55.823,0.229608
55.824,0.229652
55.825,0.229697
55.826,0.229741
55.827,0.229786
55.828,0.229831
55.829,0.229875
55.830,0.229920
55.831,0.229965
55.832,0.230009
55.833,0.230054
55.834,0.230099
55.835,0.230143
55.836,0.230188
55.837,0.230233
55.838,0.230278
55.839,0.230323
55.840,0.230368
55.841,0.230412
55.842,0.230457
55.843,0.230502
55.844,0.230547
55.845,0.230592
55.846,0.230637
55.847,0.230682
55.848,0.230727
55.849,0.230772
55.850,0.230817
55.851,0.230862
55.852,0.230907
55.853,0.230952
55.854,0.230997
55.855,0.231043
55.856,0.231088
55.857,0.231133
55.858,0.231178
55.859,0.231223
55.860,0.231268
55.861,0.231314
55.862,0.231359
55.863,0.231404
55.864,0.231450
55.865,0.231495
55.866,0.231540
55.867,0.231586
55.868,0.231631
55.869,0.231676
55.870,0.231722
55.871,0.231767
55.872,0.231813
55.873,0.231858
55.874,0.231904
55.875,0.231949
55.876,0.231995
55.877,0.232040
55.878,0.232086
55.879,0.232131
55.880,0.232177
55.881,0.232223
55.882,0.232268
55.883,0.232314
55.884,0.232359
55.885,0.232405
55.886,0.232451
55.887,0.232497
55.888,0.232542
55.889,0.232588
55.890,0.232634
55.891,0.232680
55.892,0.232726
55.893,0.232771
55.894,0.232817
55.895,0.232863
55.896,0.232909
55.897,0.232955
55.898,0.233001
55.899,0.233047
55.900,0.233093
55.901,0.233139
55.902,0.233185
55.903,0.233231
55.904,0.233277
55.905,0.233323
55.906,0.233369
55.907,0.233415
55.908,0.233461
55.909,0.233507
55.910,0.233553
55.911,0.233600
55.912,0.233646
55.913,0.233692
55.914,0.233738
55.915,0.233785
55.916,0.233831
55.917,0.233877
55.918,0.233923
55.919,0.233970
55.920,0.234016
55.921,0.234062
55.922,0.234109
55.923,0.234155
55.924,0.234202
55.925,0.234248
55.926,0.234295
55.927,0.234341
55.928,0.234387
55.929,0.234434
55.930,0.234481
55.931,0.234527
55.932,0.234574
55.933,0.234620
55.934,0.234667
55.935,0.234713
55.936,0.234760
55.937,0.234807
55.938,0.234853
55.939,0.234900
55.940,0.234947
55.941,0.234994
55.942,0.235040
55.943,0.235087
55.944,0.235134
55.945,0.235181
55.946,0.235228
55.947,0.235274
55.948,0.235321
55.949,0.235368
55.950,0.235415
55.951,0.235462
55.952,0.235509
55.953,0.235556
55.954,0.235603
55.955,0.235650
55.956,0.235697
55.957,0.235744
55.958,0.235791
55.959,0.235838
55.960,0.235885
55.961,0.235932
55.962,0.235979
55.963,0.236026
55.964,0.236074
55.965,0.236121
55.966,0.236168
55.967,0.236215
55.968,0.236262
55.969,0.236310
55.970,0.236357
55.971,0.236404
55.972,0.236452
55.973,0.236499
55.974,0.236546
55.975,0.236594
55.976,0.236641
55.977,0.236688
55.978,0.236736
55.979,0.236783
55.980,0.236831
55.981,0.236878
55.982,0.236926
55.983,0.236973
55.984,0.237021
55.985,0.237068
55.986,0.237116
55.987,0.237163
55.988,0.237211
55.989,0.237259
55.990,0.237306
55.991,0.237354
55.992,0.237402
55.993,0.237449
55.994,0.237497
55.995,0.237545
55.996,0.237593
55.997,0.237640
55.998,0.237688
55.999,0.237736
56.000,0.237784
56.001,0.237832
56.002,0.237880
56.003,0.237927
56.004,0.237975
56.005,0.238023
56.006,0.238071
56.007,0.238119
56.008,0.238167
56.009,0.238215
56.010,0.238263
56.011,0.238311
56.012,0.238359
56.013,0.238407
56.014,0.238455
56.015,0.238504
56.016,0.238552
56.017,0.238600
56.018,0.238648
56.019,0.238696
56.020,0.238744
56.021,0.238793
56.022,0.238841
56.023,0.238889
56.024,0.238937
56.025,0.238986
56.026,0.239034
56.027,0.239082
56.028,0.239131
56.029,0.239179
56.030,0.239227
56.031,0.239276
56.032,0.239324
56.033,0.239373
56.034,0.239421
56.035,0.239470
56.036,0.239518
56.037,0.239567
56.038,0.239615
56.039,0.239664
56.040,0.239712
56.041,0.239761
56.042,0.239809
56.043,0.239858
56.044,0.239907
56.045,0.239955
56.046,0.240004
56.047,0.240053
56.048,0.240102
56.049,0.240150
56.050,0.240199
56.051,0.240248
56.052,0.240297
56.053,0.240345
56.054,0.240394
56.055,0.240443
56.056,0.240492
56.057,0.240541
56.058,0.240590
56.059,0.240639
56.060,0.240688
56.061,0.240737
56.062,0.240786
56.063,0.240835
56.064,0.240884
56.065,0.240933
56.066,0.240982
56.067,0.241031
56.068,0.241080
56.069,0.241129
56.070,0.241178
56.071,0.241227
56.072,0.241276
56.073,0.241326
56.074,0.241375
56.075,0.241424
56.076,0.241473
56.077,0.241522
56.078,0.241572
56.079,0.241621
56.080,0.241670
56.081,0.241720
56.082,0.241769
56.083,0.241818
56.084,0.241868
56.085,0.241917
56.086,0.241967
56.087,0.242016
56.088,0.242065
56.089,0.242115
56.090,0.242164
56.091,0.242214
56.092,0.242264
56.093,0.242313
56.094,0.242363
56.095,0.242412
56.096,0.242462
56.097,0.242511
56.098,0.242561
56.099,0.242611
56.100,0.242660
56.101,0.242710
56.102,0.242760
56.103,0.242810
56.104,0.242859
56.105,0.242909
56.106,0.242959
56.107,0.243009
56.108,0.243059
56.109,0.243108
56.110,0.243158
56.111,0.243208
56.112,0.243258
56.113,0.243308
56.114,0.243358
56.115,0.243408
56.116,0.243458
56.117,0.243508
56.118,0.243558
56.119,0.243608
56.120,0.243658
56.121,0.243708
56.122,0.243758
56.123,0.243808
56.124,0.243858
56.125,0.243908
56.126,0.243959
56.127,0.244009
56.128,0.244059
56.129,0.244109
56.130,0.244159
56.131,0.244210
56.132,0.244260
56.133,0.244310
56.134,0.244361
56.135,0.244411
56.136,0.244461
56.137,0.244512
56.138,0.244562
56.139,0.244612
56.140,0.244663
56.141,0.244713
56.142,0.244764
56.143,0.244814
56.144,0.244865
56.145,0.244915
56.146,0.244966
56.147,0.245016
56.148,0.245067
56.149,0.245117
56.150,0.245168
56.151,0.245219
56.152,0.245269
56.153,0.245320
56.154,0.245371
56.155,0.245421
56.156,0.245472
56.157,0.245523
56.158,0.245573
56.159,0.245624
56.160,0.245675
56.161,0.245726
56.162,0.245777
56.163,0.245827
56.164,0.245878
56.165,0.245929
56.166,0.245980
56.167,0.246031
56.168,0.246082
56.169,0.246133
56.170,0.246184
56.171,0.246235
56.172,0.246286
56.173,0.246337
56.174,0.246388
56.175,0.246439
56.176,0.246490
56.177,0.246541
56.178,0.246592
56.179,0.246643
56.180,0.246695
56.181,0.246746
56.182,0.246797
56.183,0.246848
56.184,0.246899
56.185,0.246951
56.186,0.247002
56.187,0.247053
56.188,0.247104
56.189,0.247156
56.190,0.247207
56.191,0.247258
56.192,0.247310
56.193,0.247361
56.194,0.247413
56.195,0.247464
56.196,0.247515
56.197,0.247567
56.198,0.247618
56.199,0.247670
56.200,0.247721
56.201,0.247773
56.202,0.247825
56.203,0.247876
56.204,0.247928
56.205,0.247979
56.206,0.248031
56.207,0.248083
56.208,0.248134
56.209,0.248186
56.210,0.248238
56.211,0.248289
56.212,0.248341
56.213,0.248393
56.214,0.248445
56.215,0.248496
56.216,0.248548
56.217,0.248600
56.218,0.248652
56.219,0.248704
56.220,0.248756
56.221,0.248808
56.222,0.248859
56.223,0.248911
56.224,0.248963
56.225,0.249015
56.226,0.249067
56.227,0.249119
56.228,0.249171
56.229,0.249223
56.230,0.249275
56.231,0.249328
56.232,0.249380
56.233,0.249432
56.234,0.249484
56.235,0.249536
56.236,0.249588
56.237,0.249640
56.238,0.249693
56.239,0.249745
56.240,0.249797
56.241,0.249849
56.242,0.249902
56.243,0.249954
56.244,0.250006
56.245,0.250059
56.246,0.250111
56.247,0.250163
