Angle,Reflectance
55.000,0.336123
55.001,0.336147
55.002,0.336170
55.003,0.336194
55.004,0.336217
55.005,0.336240
55.006,0.336264
55.007,0.336287
55.008,0.336311
55.009,0.336334
55.010,0.336357
55.011,0.336381
55.012,0.336404
55.013,0.336428
55.014,0.336451
55.015,0.336475
55.016,0.336498
55.017,0.336521
55.018,0.336545
55.019,0.336568
55.020,0.336592
55.021,0.336615
55.022,0.336638
55.023,0.336662
55.024,0.336685
55.025,0.336709
55.026,0.336732
55.027,0.336755
55.028,0.336779
55.029,0.336802
55.030,0.336826
55.031,0.336849
55.032,0.336873
55.033,0.336896
55.034,0.336919
55.035,0.336943
55.036,0.336966
55.037,0.336990
55.038,0.337013
55.039,0.337036
55.040,0.337060
55.041,0.337083
55.042,0.337107
55.043,0.337130
55.044,0.337154
55.045,0.337177
55.046,0.337200
55.047,0.337224
55.048,0.337247
55.049,0.337271
55.050,0.337294
55.051,0.337318
55.052,0.337341
55.053,0.337364
55.054,0.337388
55.055,0.337411
55.056,0.337435
55.057,0.337458
55.058,0.337481
55.059,0.337505
55.060,0.337528
55.061,0.337552
55.062,0.337575
55.063,0.337599
55.064,0.337622
55.065,0.337645
55.066,0.337669
55.067,0.337692
55.068,0.337716
55.069,0.337739
55.070,0.337763
55.071,0.337786
55.072,0.337809
55.073,0.337833
55.074,0.337856
55.075,0.337880
55.076,0.337903
55.077,0.337927
55.078,0.337950
55.079,0.337973
55.080,0.337997
55.081,0.338020
55.082,0.338044
55.083,0.338067
55.084,0.338091
55.085,0.338114
55.086,0.338137
55.087,0.338161
55.088,0.338184
55.089,0.338208
55.090,0.338231
55.091,0.338255
55.092,0.338278
55.093,0.338301
55.094,0.338325
55.095,0.338348
55.096,0.338372
55.097,0.338395
55.098,0.338419
55.099,0.338442
55.100,0.338465
55.101,0.338489
55.102,0.338512
55.103,0.338536
55.104,0.338559
55.105,0.338583
55.106,0.338606
55.107,0.338629
55.108,0.338653
55.109,0.338676
55.110,0.338700
55.111,0.338723
55.112,0.338747
55.113,0.338770
55.114,0.338793
55.115,0.338817
55.116,0.338840
55.117,0.338864
55.118,0.338887
55.119,0.338911
55.120,0.338934
55.121,0.338958
55.122,0.338981
55.123,0.339004
55.124,0.339028
55.125,0.339051
55.126,0.339075
55.127,0.339098
55.128,0.339122
55.129,0.339145
55.130,0.339168
55.131,0.339192
55.132,0.339215
55.133,0.339239
55.134,0.339262
55.135,0.339286
55.136,0.339309
55.137,0.339333
55.138,0.339356
55.139,0.339379
55.140,0.339403
55.141,0.339426
55.142,0.339450
55.143,0.339473
55.144,0.339497
55.145,0.339520
55.146,0.339544
55.147,0.339567
55.148,0.339590
55.149,0.339614
55.150,0.339637
55.151,0.339661
55.152,0.339684
55.153,0.339708
55.154,0.339731
55.155,0.339754
55.156,0.339778
55.157,0.339801
55.158,0.339825
55.159,0.339848
55.160,0.339872
55.161,0.339895
55.162,0.339919
55.163,0.339942
55.164,0.339965
55.165,0.339989
55.166,0.340012
55.167,0.340036
55.168,0.340059
55.169,0.340083
55.170,0.340106
55.171,0.340130
55.172,0.340153
55.173,0.340176
55.174,0.340200
55.175,0.340223
55.176,0.340247
55.177,0.340270
55.178,0.340294
55.179,0.340317
55.180,0.340341
55.181,0.340364
55.182,0.340388
55.183,0.340411
55.184,0.340434
55.185,0.340458
55.186,0.340481
55.187,0.340505
55.188,0.340528
55.189,0.340552
55.190,0.340575
55.191,0.340599
55.192,0.340622
55.193,0.340645
55.194,0.340669
55.195,0.340692
55.196,0.340716
55.197,0.340739
55.198,0.340763
55.199,0.340786
55.200,0.340810
55.201,0.340833
55.202,0.340857
55.203,0.340880
55.204,0.340903
55.205,0.340927
55.206,0.340950
55.207,0.340974
55.208,0.340997
55.209,0.341021
55.210,0.341044
55.211,0.341068
55.212,0.341091
55.213,0.341115
55.214,0.341138
55.215,0.341161
55.216,0.341185
55.217,0.341208
55.218,0.341232
55.219,0.341255
55.220,0.341279
55.221,0.341302
55.222,0.341326
55.223,0.341349
55.224,0.341373
55.225,0.341396
55.226,0.341419
55.227,0.341443
55.228,0.341466
55.229,0.341490
55.230,0.341513
55.231,0.341537
55.232,0.341560
55.233,0.341584
55.234,0.341607
55.235,0.341631
55.236,0.341654
55.237,0.341677
55.238,0.341701
55.239,0.341724
55.240,0.341748
55.241,0.341771
55.242,0.341795
55.243,0.341818
55.244,0.341842
55.245,0.341865
55.246,0.341889
55.247,0.341912
55.248,0.341936
55.249,0.341959
55.250,0.341982
55.251,0.342006
55.252,0.342029
55.253,0.342053
55.254,0.342076
55.255,0.342100
55.256,0.342123
55.257,0.342147
55.258,0.342170
55.259,0.342194
55.260,0.342217
55.261,0.342241
55.262,0.342264
55.263,0.342287
55.264,0.342311
55.265,0.342334
55.266,0.342358
55.267,0.342381
55.268,0.342405
55.269,0.342428
55.270,0.342452
55.271,0.342475
55.272,0.342499
55.273,0.342522
55.274,0.342546
55.275,0.342569
55.276,0.342593
55.277,0.342616
55.278,0.342639
55.279,0.342663
55.280,0.342686
55.281,0.342710
55.282,0.342733
55.283,0.342757
55.284,0.342780
55.285,0.342804
55.286,0.342827
55.287,0.342851
55.288,0.342874
55.289,0.342898
55.290,0.342921
55.291,0.342945
55.292,0.342968
55.293,0.342991
55.294,0.343015
55.295,0.343038
55.296,0.343062
55.297,0.343085
55.298,0.343109
55.299,0.343132
55.300,0.343156
55.301,0.343179
55.302,0.343203
55.303,0.343226
55.304,0.343250
55.305,0.343273
55.306,0.343297
55.307,0.343320
55.308,0.343344
55.309,0.343367
55.310,0.343390
55.311,0.343414
55.312,0.343437
55.313,0.343461
55.314,0.343484
55.315,0.343508
55.316,0.343531
55.317,0.343555
55.318,0.343578
55.319,0.343602
55.320,0.343625
55.321,0.343649
55.322,0.343672
55.323,0.343696
55.324,0.343719
55.325,0.343743
55.326,0.343766
55.327,0.343790
55.328,0.343813
55.329,0.343836
55.330,0.343860
55.331,0.343883
55.332,0.343907
55.333,0.343930
55.334,0.343954
55.335,0.343977
55.336,0.344001
55.337,0.344024
55.338,0.344048
55.339,0.344071
55.340,0.344095
55.341,0.344118
55.342,0.344142
55.343,0.344165
55.344,0.344189
55.345,0.344212
55.346,0.344236
55.347,0.344259
55.348,0.344283
55.349,0.344306
55.350,0.344330
55.351,0.344353
55.352,0.344376
55.353,0.344400
55.354,0.344423
55.355,0.344447
55.356,0.344470
55.357,0.344494
55.358,0.344517
55.359,0.344541
55.360,0.344564
55.361,0.344588
55.362,0.344611
55.363,0.344635
55.364,0.344658
55.365,0.344682
55.366,0.344705
55.367,0.344729
55.368,0.344752
55.369,0.344776
55.370,0.344799
55.371,0.344823
55.372,0.344846
55.373,0.344870
55.374,0.344893
55.375,0.344917
55.376,0.344940
55.377,0.344964
55.378,0.344987
55.379,0.345010
55.380,0.345034
55.381,0.345057
55.382,0.345081
55.383,0.345104
55.384,0.345128
55.385,0.345151
55.386,0.345175
55.387,0.345198
55.388,0.345222
55.389,0.345245
55.390,0.345269
55.391,0.345292
55.392,0.345316
55.393,0.345339
55.394,0.345363
55.395,0.345386
55.396,0.345410
55.397,0.345433
55.398,0.345457
55.399,0.345480
55.400,0.345504
55.401,0.345527
55.402,0.345551
55.403,0.345574
55.404,0.345598
55.405,0.345621
55.406,0.345645
55.407,0.345668
55.408,0.345692
55.409,0.345715
55.410,0.345739
55.411,0.345762
55.412,0.345786
55.413,0.345809
55.414,0.345833
55.415,0.345856
55.416,0.345880
55.417,0.345903
55.418,0.345927
55.419,0.345950
55.420,0.345973
55.421,0.345997
55.422,0.346020
55.423,0.346044
55.424,0.346067
55.425,0.346091
55.426,0.346114
55.427,0.346138
55.428,0.346161
55.429,0.346185
55.430,0.346208
55.431,0.346232
55.432,0.346255
55.433,0.346279
55.434,0.346302
55.435,0.346326
55.436,0.346349
55.437,0.346373
55.438,0.346396
55.439,0.346420
55.440,0.346443
55.441,0.346467
55.442,0.346490
55.443,0.346514
55.444,0.346537
55.445,0.346561
55.446,0.346584
55.447,0.346608
55.448,0.346631
55.449,0.346655
55.450,0.346678
55.451,0.346702
55.452,0.346725
55.453,0.346749
55.454,0.346772
55.455,0.346796
55.456,0.346819
55.457,0.346843
55.458,0.346866
55.459,0.346890
55.460,0.346913
55.461,0.346937
55.462,0.346960
55.463,0.346984
55.464,0.347007
55.465,0.347031
55.466,0.347054
55.467,0.347078
55.468,0.347101
55.469,0.347125
55.470,0.347148
55.471,0.347172
55.472,0.347195
55.473,0.347219
55.474,0.347242
55.475,0.347266
55.476,0.347289
55.477,0.347313
55.478,0.347336
55.479,0.347360
55.480,0.347383
55.481,0.347407
55.482,0.347430
55.483,0.347454
55.484,0.347477
55.485,0.347501
55.486,0.347524
55.487,0.347548
55.488,0.347571
55.489,0.347595
55.490,0.347618
55.491,0.347642
55.492,0.347665
55.493,0.347689
55.494,0.347712
55.495,0.347736
55.496,0.347759
55.497,0.347783
55.498,0.347806
55.499,0.347830
55.500,0.347853
55.501,0.347877
55.502,0.347900
55.503,0.347924
55.504,0.347947
55.505,0.347971
55.506,0.347994
55.507,0.348018
55.508,0.348041
55.509,0.348065
55.510,0.348088
55.511,0.348112
55.512,0.348135
55.513,0.348159
55.514,0.348182
55.515,0.348206
55.516,0.348229
55.517,0.348253
55.518,0.348276
55.519,0.348300
55.520,0.348323
55.521,0.348347
55.522,0.348370
55.523,0.348394
55.524,0.348417
55.525,0.348441
55.526,0.348464
55.527,0.348488
55.528,0.348511
55.529,0.348535
55.530,0.348558
55.531,0.348582
55.532,0.348605
55.533,0.348629
55.534,0.348652
55.535,0.348676
55.536,0.348699
55.537,0.348723
55.538,0.348746
55.539,0.348770
55.540,0.348793
55.541,0.348817
55.542,0.348840
55.543,0.348864
55.544,0.348887
55.545,0.348911
55.546,0.348935
55.547,0.348958
55.548,0.348982
55.549,0.349005
55.550,0.349029
55.551,0.349052
55.552,0.349076
55.553,0.349099
55.554,0.349123
55.555,0.349146
55.556,0.349170
55.557,0.349193
55.558,0.349217
55.559,0.349240
55.560,0.349264
55.561,0.349287
55.562,0.349311
55.563,0.349334
55.564,0.349358
55.565,0.349381
55.566,0.349405
55.567,0.349428
55.568,0.349452
55.569,0.349475
55.570,0.349499
55.571,0.349522
55.572,0.349546
55.573,0.349569
55.574,0.349593
55.575,0.349616
55.576,0.349640
55.577,0.349663
55.578,0.349687
55.579,0.349710
55.580,0.349734
55.581,0.349757
55.582,0.349781
55.583,0.349804
55.584,0.349828
55.585,0.349851
55.586,0.349875
55.587,0.349898
55.588,0.349922
55.589,0.349946
55.590,0.349969
55.591,0.349993
55.592,0.350016
55.593,0.350040
55.594,0.350063
55.595,0.350087
55.596,0.350110
55.597,0.350134
55.598,0.350157
55.599,0.350181
55.600,0.350204
55.601,0.350228
55.602,0.350251
55.603,0.350275
55.604,0.350298
55.605,0.350322
55.606,0.350345
55.607,0.350369
55.608,0.350392
55.609,0.350416
55.610,0.350439
55.611,0.350463
55.612,0.350486
55.613,0.350510
55.614,0.350533
55.615,0.350557
55.616,0.350580
55.617,0.350604
55.618,0.350627
55.619,0.350651
55.620,0.350675
55.621,0.350698
55.622,0.350722
55.623,0.350745
55.624,0.350769
55.625,0.350792
55.626,0.350816
55.627,0.350839
55.628,0.350863
55.629,0.350886
55.630,0.350910
55.631,0.350933
55.632,0.350957
55.633,0.350980
55.634,0.351004
55.635,0.351027
55.636,0.351051
55.637,0.351074
55.638,0.351098
55.639,0.351121
55.640,0.351145
55.641,0.351168
55.642,0.351192
55.643,0.351215
55.644,0.351239
55.645,0.351263
55.646,0.351286
55.647,0.351310
55.648,0.351333
55.649,0.351357
55.650,0.351380
55.651,0.351404
55.652,0.351427
55.653,0.351451
55.654,0.351474
55.655,0.351498
55.656,0.351521
55.657,0.351545
55.658,0.351568
55.659,0.351592
55.660,0.351615
55.661,0.351639
55.662,0.351662
55.663,0.351686
55.664,0.351709
55.665,0.351733
55.666,0.351757
55.667,0.351780
55.668,0.351804
55.669,0.351827
55.670,0.351851
55.671,0.351874
55.672,0.351898
55.673,0.351921
55.674,0.351945
55.675,0.351968
55.676,0.351992
55.677,0.352015
55.678,0.352039
55.679,0.352062
55.680,0.352086
55.681,0.352109
55.682,0.352133
55.683,0.352156
55.684,0.352180
55.685,0.352203
55.686,0.352227
55.687,0.352251
55.688,0.352274
55.689,0.352298
55.690,0.352321
55.691,0.352345
55.692,0.352368
55.693,0.352392
55.694,0.352415
55.695,0.352439
55.696,0.352462
55.697,0.352486
55.698,0.352509
55.699,0.352533
55.700,0.352556
55.701,0.352580
55.702,0.352603
55.703,0.352627
55.704,0.352650
55.705,0.352674
55.706,0.352698
55.707,0.352721
55.708,0.352745
55.709,0.352768
55.710,0.352792
55.711,0.352815
55.712,0.352839
55.713,0.352862
55.714,0.352886
55.715,0.352909
55.716,0.352933
55.717,0.352956
55.718,0.352980
55.719,0.353003
55.720,0.353027
55.721,0.353050
55.722,0.353074
55.723,0.353098
55.724,0.353121
55.725,0.353145
55.726,0.353168
55.727,0.353192
55.728,0.353215
55.729,0.353239
55.730,0.353262
55.731,0.353286
55.732,0.353309
55.733,0.353333
55.734,0.353356
55.735,0.353380
55.736,0.353403
55.737,0.353427
55.738,0.353451
55.739,0.353474
55.740,0.353498
55.741,0.353521
55.742,0.353545
55.743,0.353568
55.744,0.353592
55.745,0.353615
55.746,0.353639
55.747,0.353662
55.748,0.353686
55.749,0.353709
55.750,0.353733
55.751,0.353756
55.752,0.353780
55.753,0.353803
55.754,0.353827
55.755,0.353851
55.756,0.353874
55.757,0.353898
55.758,0.353921
55.759,0.353945
55.760,0.353968
55.761,0.353992
55.762,0.354015
55.763,0.354039
55.764,0.354062
55.765,0.354086
55.766,0.354109
55.767,0.354133
55.768,0.354156
55.769,0.354180
55.770,0.354204
55.771,0.354227
55.772,0.354251
55.773,0.354274
55.774,0.354298
55.775,0.354321
55.776,0.354345
55.777,0.354368
55.778,0.354392
55.779,0.354415
55.780,0.354439
55.781,0.354462
55.782,0.354486
55.783,0.354510
55.784,0.354533
55.785,0.354557
55.786,0.354580
55.787,0.354604
55.788,0.354627
55.789,0.354651
55.790,0.354674
55.791,0.354698
55.792,0.354721
55.793,0.354745
55.794,0.354768
55.795,0.354792
55.796,0.354816
55.797,0.354839
55.798,0.354863
55.799,0.354886
55.800,0.354910
55.801,0.354933
55.802,0.354957
55.803,0.354980
55.804,0.355004
55.805,0.355027
55.806,0.355051
55.807,0.355074
55.808,0.355098
55.809,0.355121
55.810,0.355145
55.811,0.355169
55.812,0.355192
55.813,0.355216
55.814,0.355239
55.815,0.355263
55.816,0.355286
55.817,0.355310
55.818,0.355333
55.819,0.355357
55.820,0.355380
55.821,0.355404
55.822,0.355427
55.823,0.355451
55.824,0.355475
55.825,0.355498
55.826,0.355522
55.827,0.355545
55.828,0.355569
55.829,0.355592
55.830,0.355616
55.831,0.355639
55.832,0.355663
55.833,0.355686
55.834,0.355710
55.835,0.355734
55.836,0.355757
55.837,0.355781
55.838,0.355804
55.839,0.355828
55.840,0.355851
55.841,0.355875
55.842,0.355898
55.843,0.355922
55.844,0.355945
55.845,0.355969
55.846,0.355992
55.847,0.356016
55.848,0.356040
55.849,0.356063
55.850,0.356087
55.851,0.356110
55.852,0.356134
55.853,0.356157
55.854,0.356181
55.855,0.356204
55.856,0.356228
55.857,0.356251
55.858,0.356275
55.859,0.356299
55.860,0.356322
55.861,0.356346
55.862,0.356369
55.863,0.356393
55.864,0.356416
55.865,0.356440
55.866,0.356463
55.867,0.356487
55.868,0.356510
55.869,0.356534
55.870,0.356557
55.871,0.356581
55.872,0.356605
55.873,0.356628
55.874,0.356652
55.875,0.356675
55.876,0.356699
55.877,0.356722
55.878,0.356746
55.879,0.356769
55.880,0.356793
55.881,0.356816
55.882,0.356840
55.883,0.356864
55.884,0.356887
55.885,0.356911
55.886,0.356934
55.887,0.356958
55.888,0.356981
55.889,0.357005
55.890,0.357028
55.891,0.357052
55.892,0.357075
55.893,0.357099
55.894,0.357123
55.895,0.357146
55.896,0.357170
55.897,0.357193
55.898,0.357217
55.899,0.357240
55.900,0.357264
55.901,0.357287
55.902,0.357311
55.903,0.357334
55.904,0.357358
55.905,0.357382
55.906,0.357405
55.907,0.357429
55.908,0.357452
55.909,0.357476
55.910,0.357499
55.911,0.357523
55.912,0.357546
55.913,0.357570
55.914,0.357593
55.915,0.357617
55.916,0.357641
55.917,0.357664
55.918,0.357688
55.919,0.357711
55.920,0.357735
55.921,0.357758
55.922,0.357782
55.923,0.357805
55.924,0.357829
55.925,0.357852
55.926,0.357876
55.927,0.357900
55.928,0.357923
55.929,0.357947
55.930,0.357970
55.931,0.357994
55.932,0.358017
55.933,0.358041
55.934,0.358064
55.935,0.358088
55.936,0.358112
55.937,0.358135
55.938,0.358159
55.939,0.358182
55.940,0.358206
55.941,0.358229
55.942,0.358253
55.943,0.358276
55.944,0.358300
55.945,0.358323
55.946,0.358347
55.947,0.358371
55.948,0.358394
55.949,0.358418
55.950,0.358441
55.951,0.358465
55.952,0.358488
55.953,0.358512
55.954,0.358535
55.955,0.358559
55.956,0.358582
55.957,0.358606
55.958,0.358630
55.959,0.358653
55.960,0.358677
55.961,0.358700
55.962,0.358724
55.963,0.358747
55.964,0.358771
55.965,0.358794
55.966,0.358818
55.967,0.358842
55.968,0.358865
55.969,0.358889
55.970,0.358912
55.971,0.358936
55.972,0.358959
55.973,0.358983
55.974,0.359006
55.975,0.359030
55.976,0.359053
55.977,0.359077
55.978,0.359101
55.979,0.359124
55.980,0.359148
55.981,0.359171
55.982,0.359195
55.983,0.359218
55.984,0.359242
55.985,0.359265
55.986,0.359289
55.987,0.359313
55.988,0.359336
55.989,0.359360
55.990,0.359383
55.991,0.359407
55.992,0.359430
55.993,0.359454
55.994,0.359477
55.995,0.359501
55.996,0.359525
55.997,0.359548
55.998,0.359572
55.999,0.359595
56.000,0.359619
56.001,0.359642
56.002,0.359666
56.003,0.359689
56.004,0.359713
56.005,0.359736
56.006,0.359760
56.007,0.359784
56.008,0.359807
56.009,0.359831
56.010,0.359854
56.011,0.359878
56.012,0.359901
56.013,0.359925
56.014,0.359948
56.015,0.359972
56.016,0.359996
56.017,0.360019
56.018,0.360043
56.019,0.360066
56.020,0.360090
56.021,0.360113
56.022,0.360137
56.023,0.360160
56.024,0.360184
56.025,0.360208
56.026,0.360231
56.027,0.360255
56.028,0.360278
56.029,0.360302
56.030,0.360325
56.031,0.360349
56.032,0.360372
56.033,0.360396
56.034,0.360420
56.035,0.360443
56.036,0.360467
56.037,0.360490
56.038,0.360514
56.039,0.360537
56.040,0.360561
56.041,0.360584
56.042,0.360608
56.043,0.360632
56.044,0.360655
56.045,0.360679
56.046,0.360702
56.047,0.360726
56.048,0.360749
56.049,0.360773
56.050,0.360796
56.051,0.360820
56.052,0.360844
56.053,0.360867
56.054,0.360891
56.055,0.360914
56.056,0.360938
56.057,0.360961
56.058,0.360985
56.059,0.361008
56.060,0.361032
56.061,0.361055
56.062,0.361079
56.063,0.361103
56.064,0.361126
56.065,0.361150
56.066,0.361173
56.067,0.361197
56.068,0.361220
56.069,0.361244
56.070,0.361267
56.071,0.361291
56.072,0.361315
56.073,0.361338
56.074,0.361362
56.075,0.361385
56.076,0.361409
56.077,0.361432
56.078,0.361456
56.079,0.361479
56.080,0.361503
56.081,0.361527
56.082,0.361550
56.083,0.361574
56.084,0.361597
56.085,0.361621
56.086,0.361644
56.087,0.361668
56.088,0.361691
56.089,0.361715
56.090,0.361739
56.091,0.361762
56.092,0.361786
56.093,0.361809
56.094,0.361833
56.095,0.361856
56.096,0.361880
56.097,0.361904
56.098,0.361927
56.099,0.361951
56.100,0.361974
56.101,0.361998
56.102,0.362021
56.103,0.362045
56.104,0.362068
56.105,0.362092
56.106,0.362116
56.107,0.362139
56.108,0.362163
56.109,0.362186
56.110,0.362210
56.111,0.362233
56.112,0.362257
56.113,0.362280
56.114,0.362304
56.115,0.362328
56.116,0.362351
56.117,0.362375
56.118,0.362398
56.119,0.362422
56.120,0.362445
56.121,0.362469
56.122,0.362492
56.123,0.362516
56.124,0.362540
56.125,0.362563
56.126,0.362587
56.127,0.362610
56.128,0.362634
56.129,0.362657
56.130,0.362681
56.131,0.362704
56.132,0.362728
56.133,0.362752
56.134,0.362775
56.135,0.362799
56.136,0.362822
56.137,0.362846
56.138,0.362869
56.139,0.362893
56.140,0.362916
56.141,0.362940
56.142,0.362964
56.143,0.362987
56.144,0.363011
56.145,0.363034
56.146,0.363058
56.147,0.363081
56.148,0.363105
56.149,0.363128
56.150,0.363152
56.151,0.363176
56.152,0.363199
56.153,0.363223
56.154,0.363246
56.155,0.363270
56.156,0.363293
56.157,0.363317
56.158,0.363341
56.159,0.363364
56.160,0.363388
56.161,0.363411
56.162,0.363435
56.163,0.363458
56.164,0.363482
56.165,0.363505
56.166,0.363529
56.167,0.363553
56.168,0.363576
56.169,0.363600
56.170,0.363623
56.171,0.363647
56.172,0.363670
56.173,0.363694
56.174,0.363717
56.175,0.363741
56.176,0.363765
56.177,0.363788
56.178,0.363812
56.179,0.363835
56.180,0.363859
56.181,0.363882
56.182,0.363906
56.183,0.363929
56.184,0.363953
56.185,0.363977
56.186,0.364000
56.187,0.364024
56.188,0.364047
56.189,0.364071
56.190,0.364094
56.191,0.364118
56.192,0.364142
56.193,0.364165
56.194,0.364189
56.195,0.364212
56.196,0.364236
56.197,0.364259
56.198,0.364283
56.199,0.364306
56.200,0.364330
56.201,0.364354
56.202,0.364377
56.203,0.364401
56.204,0.364424
56.205,0.364448
56.206,0.364471
56.207,0.364495
56.208,0.364518
56.209,0.364542
56.210,0.364566
56.211,0.364589
56.212,0.364613
56.213,0.364636
56.214,0.364660
56.215,0.364683
56.216,0.364707
56.217,0.364731
56.218,0.364754
56.219,0.364778
56.220,0.364801
56.221,0.364825
56.222,0.364848
56.223,0.364872
56.224,0.364895
56.225,0.364919
56.226,0.364943
56.227,0.364966
56.228,0.364990
56.229,0.365013
56.230,0.365037
56.231,0.365060
56.232,0.365084
56.233,0.365107
56.234,0.365131
56.235,0.365155
56.236,0.365178
56.237,0.365202
56.238,0.365225
56.239,0.365249
56.240,0.365272
56.241,0.365296
56.242,0.365320
56.243,0.365343
56.244,0.365367
56.245,0.365390
56.246,0.365414
56.247,0.365437
