Angle,Reflectance
55.000,0.010856
55.001,0.010865
55.002,0.010874
55.003,0.010883
55.004,0.010892
55.005,0.010901
55.006,0.010910
55.007,0.010919
55.008,0.010928
55.009,0.010937
55.010,0.010946
55.011,0.010955
55.012,0.010964
55.013,0.010973
55.014,0.010982
55.015,0.010991
55.016,0.011000
55.017,0.011009
55.018,0.011018
55.019,0.011027
55.020,0.011036
55.021,0.011045
55.022,0.011054
55.023,0.011063
55.024,0.011072
55.025,0.011081
55.026,0.011090
55.027,0.011100
55.028,0.011109
55.029,0.011118
55.030,0.011127
55.031,0.011136
55.032,0.011145
55.033,0.011154
55.034,0.011163
55.035,0.011172
55.036,0.011182
55.037,0.011191
55.038,0.011200
55.039,0.011209
55.040,0.011218
55.041,0.011227
55.042,0.011237
55.043,0.011246
55.044,0.011255
55.045,0.011264
55.046,0.011273
55.047,0.011282
55.048,0.011292
55.049,0.011301
55.050,0.011310
55.051,0.011319
55.052,0.011329
55.053,0.011338
55.054,0.011347
55.055,0.011356
55.056,0.011366
55.057,0.011375
55.058,0.011384
55.059,0.011393
55.060,0.011403
55.061,0.011412
55.062,0.011421
55.063,0.011431
55.064,0.011440
55.065,0.011449
55.066,0.011459
55.067,0.011468
55.068,0.011477
55.069,0.011487
55.070,0.011496
55.071,0.011505
55.072,0.011515
55.073,0.011524
55.074,0.011533
55.075,0.011543
55.076,0.011552
55.077,0.011561
55.078,0.011571
55.079,0.011580
55.080,0.011590
55.081,0.011599
55.082,0.011608
55.083,0.011618
55.084,0.011627
55.085,0.011637
55.086,0.011646
55.087,0.011656
55.088,0.011665
55.089,0.011675
55.090,0.011684
55.091,0.011694
55.092,0.011703
55.093,0.011713
55.094,0.011722
55.095,0.011732
55.096,0.011741
55.097,0.011751
55.098,0.011760
55.099,0.011770
55.100,0.011779
55.101,0.011789
55.102,0.011798
55.103,0.011808
55.104,0.011817
55.105,0.011827
55.106,0.011836
55.107,0.011846
55.108,0.011856
55.109,0.011865
55.110,0.011875
55.111,0.011884
55.112,0.011894
55.113,0.011904
55.114,0.011913
55.115,0.011923
55.116,0.011932
55.117,0.011942
55.118,0.011952
55.119,0.011961
55.120,0.011971
55.121,0.011981
55.122,0.011990
55.123,0.012000
55.124,0.012010
55.125,0.012019
55.126,0.012029
55.127,0.012039
55.128,0.012049
55.129,0.012058
55.130,0.012068
55.131,0.012078
55.132,0.012087
55.133,0.012097
55.134,0.012107
55.135,0.012117
55.136,0.012126
55.137,0.012136
55.138,0.012146
55.139,0.012156
55.140,0.012166
55.141,0.012175
55.142,0.012185
55.143,0.012195
55.144,0.012205
55.145,0.012215
55.146,0.012224
55.147,0.012234
55.148,0.012244
55.149,0.012254
55.150,0.012264
55.151,0.012274
55.152,0.012284
55.153,0.012293
55.154,0.012303
55.155,0.012313
55.156,0.012323
55.157,0.012333
55.158,0.012343
55.159,0.012353
55.160,0.012363
55.161,0.012373
55.162,0.012383
55.163,0.012392
55.164,0.012402
55.165,0.012412
55.166,0.012422
55.167,0.012432
55.168,0.012442
55.169,0.012452
55.170,0.012462
55.171,0.012472
55.172,0.012482
55.173,0.012492
55.174,0.012502
55.175,0.012512
55.176,0.012522
55.177,0.012532
55.178,0.012542
55.179,0.012552
55.180,0.012562
55.181,0.012572
55.182,0.012582
55.183,0.012592
55.184,0.012603
55.185,0.012613
55.186,0.012623
55.187,0.012633
55.188,0.012643
55.189,0.012653
55.190,0.012663
55.191,0.012673
55.192,0.012683
55.193,0.012693
55.194,0.012704
55.195,0.012714
55.196,0.012724
55.197,0.012734
55.198,0.012744
55.199,0.012754
55.200,0.012765
55.201,0.012775
55.202,0.012785
55.203,0.012795
55.204,0.012805
55.205,0.012816
55.206,0.012826
55.207,0.012836
55.208,0.012846
55.209,0.012856
55.210,0.012867
55.211,0.012877
55.212,0.012887
55.213,0.012897
55.214,0.012908
55.215,0.012918
55.216,0.012928
55.217,0.012939
55.218,0.012949
55.219,0.012959
55.220,0.012969
55.221,0.012980
55.222,0.012990
55.223,0.013000
55.224,0.013011
55.225,0.013021
55.226,0.013031
55.227,0.013042
55.228,0.013052
55.229,0.013063
55.230,0.013073
55.231,0.013083
55.232,0.013094
55.233,0.013104
55.234,0.013114
55.235,0.013125
55.236,0.013135
55.237,0.013146
55.238,0.013156
55.239,0.013167
55.240,0.013177
55.241,0.013187
55.242,0.013198
55.243,0.013208
55.244,0.013219
55.245,0.013229
55.246,0.013240
55.247,0.013250
55.248,0.013261
55.249,0.013271
55.250,0.013282
55.251,0.013292
55.252,0.013303
55.253,0.013313
55.254,0.013324
55.255,0.013334
55.256,0.013345
55.257,0.013356
55.258,0.013366
55.259,0.013377
55.260,0.013387
55.261,0.013398
55.262,0.013408
55.263,0.013419
55.264,0.013430
55.265,0.013440
55.266,0.013451
55.267,0.013461
55.268,0.013472
55.269,0.013483
55.270,0.013493
55.271,0.013504
55.272,0.013515
55.273,0.013525
55.274,0.013536
55.275,0.013547
55.276,0.013557
55.277,0.013568
55.278,0.013579
55.279,0.013589
55.280,0.013600
55.281,0.013611
55.282,0.013622
55.283,0.013632
55.284,0.013643
55.285,0.013654
55.286,0.013665
55.287,0.013675
55.288,0.013686
55.289,0.013697
55.290,0.013708
55.291,0.013718
55.292,0.013729
55.293,0.013740
55.294,0.013751
55.295,0.013762
55.296,0.013772
55.297,0.013783
55.298,0.013794
55.299,0.013805
55.300,0.013816
55.301,0.013827
55.302,0.013838
55.303,0.013848
55.304,0.013859
55.305,0.013870
55.306,0.013881
55.307,0.013892
55.308,0.013903
55.309,0.013914
55.310,0.013925
55.311,0.013936
55.312,0.013947
55.313,0.013958
55.314,0.013968
55.315,0.013979
55.316,0.013990
55.317,0.014001
55.318,0.014012
55.319,0.014023
55.320,0.014034
55.321,0.014045
55.322,0.014056
55.323,0.014067
55.324,0.014078
55.325,0.014089
55.326,0.014100
55.327,0.014111
55.328,0.014122
55.329,0.014133
55.330,0.014145
55.331,0.014156
55.332,0.014167
55.333,0.014178
55.334,0.014189
55.335,0.014200
55.336,0.014211
55.337,0.014222
55.338,0.014233
55.339,0.014244
55.340,0.014255
55.341,0.014267
55.342,0.014278
55.343,0.014289
55.344,0.014300
55.345,0.014311
55.346,0.014322
55.347,0.014334
55.348,0.014345
55.349,0.014356
55.350,0.014367
55.351,0.014378
55.352,0.014390
55.353,0.014401
55.354,0.014412
55.355,0.014423
55.356,0.014434
55.357,0.014446
55.358,0.014457
55.359,0.014468
55.360,0.014480
55.361,0.014491
55.362,0.014502
55.363,0.014513
55.364,0.014525
55.365,0.014536
55.366,0.014547
55.367,0.014559
55.368,0.014570
55.369,0.014581
55.370,0.014593
55.371,0.014604
55.372,0.014615
55.373,0.014627
55.374,0.014638
55.375,0.014649
55.376,0.014661
55.377,0.014672
55.378,0.014684
55.379,0.014695
55.380,0.014706
55.381,0.014718
55.382,0.014729
55.383,0.014741
55.384,0.014752
55.385,0.014764
55.386,0.014775
55.387,0.014786
55.388,0.014798
55.389,0.014809
55.390,0.014821
55.391,0.014832
55.392,0.014844
55.393,0.014855
55.394,0.014867
55.395,0.014878
55.396,0.014890
55.397,0.014901
55.398,0.014913
55.399,0.014925
55.400,0.014936
55.401,0.014948
55.402,0.014959
55.403,0.014971
55.404,0.014982
55.405,0.014994
55.406,0.015006
55.407,0.015017
55.408,0.015029
55.409,0.015040
55.410,0.015052
55.411,0.015064
55.412,0.015075
55.413,0.015087
55.414,0.015099
55.415,0.015110
55.416,0.015122
55.417,0.015134
55.418,0.015145
55.419,0.015157
55.420,0.015169
55.421,0.015180
55.422,0.015192
55.423,0.015204
55.424,0.015216
55.425,0.015227
55.426,0.015239
55.427,0.015251
55.428,0.015263
55.429,0.015274
55.430,0.015286
55.431,0.015298
55.432,0.015310
55.433,0.015321
55.434,0.015333
55.435,0.015345
55.436,0.015357
55.437,0.015369
55.438,0.015381
55.439,0.015392
55.440,0.015404
55.441,0.015416
55.442,0.015428
55.443,0.015440
55.444,0.015452
55.445,0.015464
55.446,0.015475
55.447,0.015487
55.448,0.015499
55.449,0.015511
55.450,0.015523
55.451,0.015535
55.452,0.015547
55.453,0.015559
55.454,0.015571
55.455,0.015583
55.456,0.015595
55.457,0.015607
55.458,0.015619
55.459,0.015631
55.460,0.015643
55.461,0.015655
55.462,0.015667
55.463,0.015679
55.464,0.015691
55.465,0.015703
55.466,0.015715
55.467,0.015727
55.468,0.015739
55.469,0.015751
55.470,0.015763
55.471,0.015775
55.472,0.015787
55.473,0.015799
55.474,0.015811
55.475,0.015823
55.476,0.015836
55.477,0.015848
55.478,0.015860
55.479,0.015872
55.480,0.015884
55.481,0.015896
55.482,0.015908
55.483,0.015921
55.484,0.015933
55.485,0.015945
55.486,0.015957
55.487,0.015969
55.488,0.015981
55.489,0.015994
55.490,0.016006
55.491,0.016018
55.492,0.016030
55.493,0.016043
55.494,0.016055
55.495,0.016067
55.496,0.016079
55.497,0.016092
55.498,0.016104
55.499,0.016116
55.500,0.016128
55.501,0.016141
55.502,0.016153
55.503,0.016165
55.504,0.016178
55.505,0.016190
55.506,0.016202
55.507,0.016215
55.508,0.016227
55.509,0.016239
55.510,0.016252
55.511,0.016264
55.512,0.016277
55.513,0.016289
55.514,0.016301
55.515,0.016314
55.516,0.016326
55.517,0.016339
55.518,0.016351
55.519,0.016363
55.520,0.016376
55.521,0.016388
55.522,0.016401
55.523,0.016413
55.524,0.016426
55.525,0.016438
55.526,0.016451
55.527,0.016463
55.528,0.016476
55.529,0.016488
55.530,0.016501
55.531,0.016513
55.532,0.016526
55.533,0.016538
55.534,0.016551
55.535,0.016563
55.536,0.016576
55.537,0.016589
55.538,0.016601
55.539,0.016614
55.540,0.016626
55.541,0.016639
55.542,0.016652
55.543,0.016664
55.544,0.016677
55.545,0.016689
55.546,0.016702
55.547,0.016715
55.548,0.016727
55.549,0.016740
55.550,0.016753
55.551,0.016765
55.552,0.016778
55.553,0.016791
55.554,0.016804
55.555,0.016816
55.556,0.016829
55.557,0.016842
55.558,0.016854
55.559,0.016867
55.560,0.016880
55.561,0.016893
55.562,0.016905
55.563,0.016918
55.564,0.016931
55.565,0.016944
55.566,0.016957
55.567,0.016969
55.568,0.016982
55.569,0.016995
55.570,0.017008
55.571,0.017021
55.572,0.017034
55.573,0.017046
55.574,0.017059
55.575,0.017072
55.576,0.017085
55.577,0.017098
55.578,0.017111
55.579,0.017124
55.580,0.017137
55.581,0.017149
55.582,0.017162
55.583,0.017175
55.584,0.017188
55.585,0.017201
55.586,0.017214
55.587,0.017227
55.588,0.017240
55.589,0.017253
55.590,0.017266
55.591,0.017279
55.592,0.017292
55.593,0.017305
55.594,0.017318
55.595,0.017331
55.596,0.017344
55.597,0.017357
55.598,0.017370
55.599,0.017383
55.600,0.017396
55.601,0.017409
55.602,0.017422
55.603,0.017436
55.604,0.017449
55.605,0.017462
55.606,0.017475
55.607,0.017488
55.608,0.017501
55.609,0.017514
55.610,0.017527
55.611,0.017541
55.612,0.017554
55.613,0.017567
55.614,0.017580
55.615,0.017593
55.616,0.017606
55.617,0.017620
55.618,0.017633
55.619,0.017646
55.620,0.017659
55.621,0.017672
55.622,0.017686
55.623,0.017699
55.624,0.017712
55.625,0.017725
55.626,0.017739
55.627,0.017752
55.628,0.017765
55.629,0.017779
55.630,0.017792
55.631,0.017805
55.632,0.017818
55.633,0.017832
55.634,0.017845
55.635,0.017858
55.636,0.017872
55.637,0.017885
55.638,0.017899
55.639,0.017912
55.640,0.017925
55.641,0.017939
55.642,0.017952
55.643,0.017965
55.644,0.017979
55.645,0.017992
55.646,0.018006
55.647,0.018019
55.648,0.018033
55.649,0.018046
55.650,0.018060
55.651,0.018073
55.652,0.018086
55.653,0.018100
55.654,0.018113
55.655,0.018127
55.656,0.018140
55.657,0.018154
55.658,0.018168
55.659,0.018181
55.660,0.018195
55.661,0.018208
55.662,0.018222
55.663,0.018235
55.664,0.018249
55.665,0.018262
55.666,0.018276
55.667,0.018290
55.668,0.018303
55.669,0.018317
55.670,0.018330
55.671,0.018344
55.672,0.018358
55.673,0.018371
55.674,0.018385
55.675,0.018399
55.676,0.018412
55.677,0.018426
55.678,0.018440
55.679,0.018453
55.680,0.018467
55.681,0.018481
55.682,0.018495
55.683,0.018508
55.684,0.018522
55.685,0.018536
55.686,0.018550
55.687,0.018563
55.688,0.018577
55.689,0.018591
55.690,0.018605
55.691,0.018618
55.692,0.018632
55.693,0.018646
55.694,0.018660
55.695,0.018674
55.696,0.018687
55.697,0.018701
55.698,0.018715
55.699,0.018729
55.700,0.018743
55.701,0.018757
55.702,0.018771
55.703,0.018785
55.704,0.018798
55.705,0.018812
55.706,0.018826
55.707,0.018840
55.708,0.018854
55.709,0.018868
55.710,0.018882
55.711,0.018896
55.712,0.018910
55.713,0.018924
55.714,0.018938
55.715,0.018952
55.716,0.018966
55.717,0.018980
55.718,0.018994
55.719,0.019008
55.720,0.019022
55.721,0.019036
55.722,0.019050
55.723,0.019064
55.724,0.019078
55.725,0.019092
55.726,0.019106
55.727,0.019120
55.728,0.019135
55.729,0.019149
55.730,0.019163
55.731,0.019177
55.732,0.019191
55.733,0.019205
55.734,0.019219
55.735,0.019233
55.736,0.019248
55.737,0.019262
55.738,0.019276
55.739,0.019290
55.740,0.019304
55.741,0.019319
55.742,0.019333
55.743,0.019347
55.744,0.019361
55.745,0.019375
55.746,0.019390
55.747,0.019404
55.748,0.019418
55.749,0.019433
55.750,0.019447
55.751,0.019461
55.752,0.019475
55.753,0.019490
55.754,0.019504
55.755,0.019518
55.756,0.019533
55.757,0.019547
55.758,0.019561
55.759,0.019576
55.760,0.019590
55.761,0.019604
55.762,0.019619
55.763,0.019633
55.764,0.019648
55.765,0.019662
55.766,0.019676
55.767,0.019691
55.768,0.019705
55.769,0.019720
55.770,0.019734
55.771,0.019749
55.772,0.019763
55.773,0.019778
55.774,0.019792
55.775,0.019807
55.776,0.019821
55.777,0.019836
55.778,0.019850
55.779,0.019865
55.780,0.019879
55.781,0.019894
55.782,0.019908
55.783,0.019923
55.784,0.019937
55.785,0.019952
55.786,0.019967
55.787,0.019981
55.788,0.019996
55.789,0.020010
55.790,0.020025
55.791,0.020040
55.792,0.020054
55.793,0.020069
55.794,0.020084
55.795,0.020098
55.796,0.020113
55.797,0.020128
55.798,0.020142
55.799,0.020157
55.800,0.020172
55.801,0.020186
55.802,0.020201
55.803,0.020216
55.804,0.020231
55.805,0.020245
55.806,0.020260
55.807,0.020275
55.808,0.020290
55.809,0.020304
55.810,0.020319
55.811,0.020334
55.812,0.020349
55.813,0.020364
55.814,0.020378
55.815,0.020393
55.816,0.020408
55.817,0.020423
55.818,0.020438
55.819,0.020453
55.820,0.020468
55.821,0.020483
55.822,0.020497
55.823,0.020512
55.824,0.020527
55.825,0.020542
55.826,0.020557
55.827,0.020572
55.828,0.020587
55.829,0.020602
55.830,0.020617
55.831,0.020632
55.832,0.020647
55.833,0.020662
55.834,0.020677
55.835,0.020692
55.836,0.020707
55.837,0.020722
55.838,0.020737
55.839,0.020752
55.840,0.020767
55.841,0.020782
55.842,0.020797
55.843,0.020812
55.844,0.020827
55.845,0.020842
55.846,0.020857
55.847,0.020873
55.848,0.020888
55.849,0.020903
55.850,0.020918
55.851,0.020933
55.852,0.020948
55.853,0.020963
55.854,0.020979
55.855,0.020994
55.856,0.021009
55.857,0.021024
55.858,0.021039
55.859,0.021055
55.860,0.021070
55.861,0.021085
55.862,0.021100
55.863,0.021116
55.864,0.021131
55.865,0.021146
55.866,0.021161
55.867,0.021177
55.868,0.021192
55.869,0.021207
55.870,0.021223
55.871,0.021238
55.872,0.021253
55.873,0.021269
55.874,0.021284
55.875,0.021299
55.876,0.021315
55.877,0.021330
55.878,0.021345
55.879,0.021361
55.880,0.021376
55.881,0.021392
55.882,0.021407
55.883,0.021422
55.884,0.021438
55.885,0.021453
55.886,0.021469
55.887,0.021484
55.888,0.021500
55.889,0.021515
55.890,0.021531
55.891,0.021546
55.892,0.021562
55.893,0.021577
55.894,0.021593
55.895,0.021608
55.896,0.021624
55.897,0.021639
55.898,0.021655
55.899,0.021671
55.900,0.021686
55.901,0.021702
55.902,0.021717
55.903,0.021733
55.904,0.021749
55.905,0.021764
55.906,0.021780
55.907,0.021795
55.908,0.021811
55.909,0.021827
55.910,0.021842
55.911,0.021858
55.912,0.021874
55.913,0.021889
55.914,0.021905
55.915,0.021921
55.916,0.021937
55.917,0.021952
55.918,0.021968
55.919,0.021984
55.920,0.022000
55.921,0.022015
55.922,0.022031
55.923,0.022047
55.924,0.022063
55.925,0.022079
55.926,0.022094
55.927,0.022110
55.928,0.022126
55.929,0.022142
55.930,0.022158
55.931,0.022174
55.932,0.022189
55.933,0.022205
55.934,0.022221
55.935,0.022237
55.936,0.022253
55.937,0.022269
55.938,0.022285
55.939,0.022301
55.940,0.022317
55.941,0.022333
55.942,0.022349
55.943,0.022365
55.944,0.022381
55.945,0.022396
55.946,0.022412
55.947,0.022428
55.948,0.022444
55.949,0.022461
55.950,0.022477
55.951,0.022493
55.952,0.022509
55.953,0.022525
55.954,0.022541
55.955,0.022557
55.956,0.022573
55.957,0.022589
55.958,0.022605
55.959,0.022621
55.960,0.022637
55.961,0.022653
55.962,0.022670
55.963,0.022686
55.964,0.022702
55.965,0.022718
55.966,0.022734
55.967,0.022750
55.968,0.022767
55.969,0.022783
55.970,0.022799
55.971,0.022815
55.972,0.022832
55.973,0.022848
55.974,0.022864
55.975,0.022880
55.976,0.022897
55.977,0.022913
55.978,0.022929
55.979,0.022945
55.980,0.022962
55.981,0.022978
55.982,0.022994
55.983,0.023011
55.984,0.023027
55.985,0.023043
55.986,0.023060
55.987,0.023076
55.988,0.023092
55.989,0.023109
55.990,0.023125
55.991,0.023142
55.992,0.023158
55.993,0.023174
55.994,0.023191
55.995,0.023207
55.996,0.023224
55.997,0.023240
55.998,0.023257
55.999,0.023273
56.000,0.023290
56.001,0.023306
56.002,0.023323
56.003,0.023339
56.004,0.023356
56.005,0.023372
56.006,0.023389
56.007,0.023405
56.008,0.023422
56.009,0.023439
56.010,0.023455
56.011,0.023472
56.012,0.023488
56.013,0.023505
56.014,0.023522
56.015,0.023538
56.016,0.023555
56.017,0.023571
56.018,0.023588
56.019,0.023605
56.020,0.023621
56.021,0.023638
56.022,0.023655
56.023,0.023671
56.024,0.023688
56.025,0.023705
56.026,0.023722
56.027,0.023738
56.028,0.023755
56.029,0.023772
56.030,0.023789
56.031,0.023805
56.032,0.023822
56.033,0.023839
56.034,0.023856
56.035,0.023873
56.036,0.023889
56.037,0.023906
56.038,0.023923
56.039,0.023940
56.040,0.023957
56.041,0.023974
56.042,0.023991
56.043,0.024008
56.044,0.024024
56.045,0.024041
56.046,0.024058
56.047,0.024075
56.048,0.024092
56.049,0.024109
56.050,0.024126
56.051,0.024143
56.052,0.024160
56.053,0.024177
56.054,0.024194
56.055,0.024211
56.056,0.024228
56.057,0.024245
56.058,0.024262
56.059,0.024279
56.060,0.024296
56.061,0.024313
56.062,0.024330
56.063,0.024347
56.064,0.024364
56.065,0.024381
56.066,0.024399
56.067,0.024416
56.068,0.024433
56.069,0.024450
56.070,0.024467
56.071,0.024484
56.072,0.024501
56.073,0.024519
56.074,0.024536
56.075,0.024553
56.076,0.024570
56.077,0.024587
56.078,0.024605
56.079,0.024622
56.080,0.024639
56.081,0.024656
56.082,0.024674
56.083,0.024691
56.084,0.024708
56.085,0.024725
56.086,0.024743
56.087,0.024760
56.088,0.024777
56.089,0.024795
56.090,0.024812
56.091,0.024829
56.092,0.024847
56.093,0.024864
56.094,0.024881
56.095,0.024899
56.096,0.024916
56.097,0.024934
56.098,0.024951
56.099,0.024969
56.100,0.024986
56.101,0.025003
56.102,0.025021
56.103,0.025038
56.104,0.025056
56.105,0.025073
56.106,0.025091
56.107,0.025108
56.108,0.025126
56.109,0.025143
56.110,0.025161
56.111,0.025178
56.112,0.025196
56.113,0.025213
56.114,0.025231
56.115,0.025249
56.116,0.025266
56.117,0.025284
56.118,0.025301
56.119,0.025319
56.120,0.025337
56.121,0.025354
56.122,0.025372
56.123,0.025390
56.124,0.025407
56.125,0.025425
56.126,0.025443
56.127,0.025460
56.128,0.025478
56.129,0.025496
56.130,0.025513
56.131,0.025531
56.132,0.025549
56.133,0.025567
56.134,0.025584
56.135,0.025602
56.136,0.025620
56.137,0.025638
56.138,0.025656
56.139,0.025673
56.140,0.025691
56.141,0.025709
56.142,0.025727
56.143,0.025745
56.144,0.025763
56.145,0.025780
56.146,0.025798
56.147,0.025816
56.148,0.025834
56.149,0.025852
56.150,0.025870
56.151,0.025888
56.152,0.025906
56.153,0.025924
56.154,0.025942
56.155,0.025960
56.156,0.025978
56.157,0.025996
56.158,0.026014
56.159,0.026032
56.160,0.026050
56.161,0.026068
56.162,0.026086
56.163,0.026104
56.164,0.026122
56.165,0.026140
56.166,0.026158
56.167,0.026176
56.168,0.026194
56.169,0.026212
56.170,0.026230
56.171,0.026249
56.172,0.026267
56.173,0.026285
56.174,0.026303
56.175,0.026321
56.176,0.026339
56.177,0.026357
56.178,0.026376
56.179,0.026394
56.180,0.026412
56.181,0.026430
56.182,0.026449
56.183,0.026467
56.184,0.026485
56.185,0.026503
56.186,0.026522
56.187,0.026540
56.188,0.026558
56.189,0.026576
56.190,0.026595
56.191,0.026613
56.192,0.026631
56.193,0.026650
56.194,0.026668
56.195,0.026686
56.196,0.026705
56.197,0.026723
56.198,0.026742
56.199,0.026760
56.200,0.026778
56.201,0.026797
56.202,0.026815
56.203,0.026834
56.204,0.026852
56.205,0.026871
56.206,0.026889
56.207,0.026908
56.208,0.026926
56.209,0.026945
56.210,0.026963
56.211,0.026982
56.212,0.027000
56.213,0.027019
56.214,0.027037
56.215,0.027056
56.216,0.027074
56.217,0.027093
56.218,0.027112
56.219,0.027130
56.220,0.027149
56.221,0.027167
56.222,0.027186
56.223,0.027205
56.224,0.027223
56.225,0.027242
56.226,0.027261
56.227,0.027279
56.228,0.027298
56.229,0.027317
56.230,0.027336
56.231,0.027354
56.232,0.027373
56.233,0.027392
56.234,0.027410
56.235,0.027429
56.236,0.027448
56.237,0.027467
56.238,0.027486
56.239,0.027504
56.240,0.027523
56.241,0.027542
56.242,0.027561
56.243,0.027580
56.244,0.027599
56.245,0.027617
56.246,0.027636
56.247,0.027655
