Angle,Reflectance
55.000,0.031409
55.001,0.031420
55.002,0.031430
55.003,0.031440
55.004,0.031451
55.005,0.031461
55.006,0.031471
55.007,0.031481
55.008,0.031492
55.009,0.031502
55.010,0.031512
55.011,0.031523
55.012,0.031533
55.013,0.031543
55.014,0.031554
55.015,0.031564
55.016,0.031574
55.017,0.031585
55.018,0.031595
55.019,0.031605
55.020,0.031616
55.021,0.031626
55.022,0.031636
55.023,0.031647
55.024,0.031657
55.025,0.031667
55.026,0.031678
55.027,0.031688
55.028,0.031698
55.029,0.031709
55.030,0.031719
55.031,0.031730
55.032,0.031740
55.033,0.031750
55.034,0.031761
55.035,0.031771
55.036,0.031781
55.037,0.031792
55.038,0.031802
55.039,0.031812
55.040,0.031823
55.041,0.031833
55.042,0.031844
55.043,0.031854
55.044,0.031864
55.045,0.031875
55.046,0.031885
55.047,0.031896
55.048,0.031906
55.049,0.031916
55.050,0.031927
55.051,0.031937
55.052,0.031948
55.053,0.031958
55.054,0.031968
55.055,0.031979
55.056,0.031989
55.057,0.032000
55.058,0.032010
55.059,0.032020
55.060,0.032031
55.061,0.032041
55.062,0.032052
55.063,0.032062
55.064,0.032073
55.065,0.032083
55.066,0.032093
55.067,0.032104
55.068,0.032114
55.069,0.032125
55.070,0.032135
55.071,0.032146
55.072,0.032156
55.073,0.032166
55.074,0.032177
55.075,0.032187
55.076,0.032198
55.077,0.032208
55.078,0.032219
55.079,0.032229
55.080,0.032240
55.081,0.032250
55.082,0.032261
55.083,0.032271
55.084,0.032282
55.085,0.032292
55.086,0.032302
55.087,0.032313
55.088,0.032323
55.089,0.032334
55.090,0.032344
55.091,0.032355
55.092,0.032365
55.093,0.032376
55.094,0.032386
55.095,0.032397
55.096,0.032407
55.097,0.032418
55.098,0.032428
55.099,0.032439
55.100,0.032449
55.101,0.032460
55.102,0.032470
55.103,0.032481
55.104,0.032491
55.105,0.032502
55.106,0.032512
55.107,0.032523
55.108,0.032533
55.109,0.032544
55.110,0.032554
55.111,0.032565
55.112,0.032575
55.113,0.032586
55.114,0.032597
55.115,0.032607
55.116,0.032618
55.117,0.032628
55.118,0.032639
55.119,0.032649
55.120,0.032660
55.121,0.032670
55.122,0.032681
55.123,0.032691
55.124,0.032702
55.125,0.032712
55.126,0.032723
55.127,0.032734
55.128,0.032744
55.129,0.032755
55.130,0.032765
55.131,0.032776
55.132,0.032786
55.133,0.032797
55.134,0.032808
55.135,0.032818
55.136,0.032829
55.137,0.032839
55.138,0.032850
55.139,0.032860
55.140,0.032871
55.141,0.032882
55.142,0.032892
55.143,0.032903
55.144,0.032913
55.145,0.032924
55.146,0.032934
55.147,0.032945
55.148,0.032956
55.149,0.032966
55.150,0.032977
55.151,0.032987
55.152,0.032998
55.153,0.033009
55.154,0.033019
55.155,0.033030
55.156,0.033041
55.157,0.033051
55.158,0.033062
55.159,0.033072
55.160,0.033083
55.161,0.033094
55.162,0.033104
55.163,0.033115
55.164,0.033126
55.165,0.033136
55.166,0.033147
55.167,0.033157
55.168,0.033168
55.169,0.033179
55.170,0.033189
55.171,0.033200
55.172,0.033211
55.173,0.033221
55.174,0.033232
55.175,0.033243
55.176,0.033253
55.177,0.033264
55.178,0.033275
55.179,0.033285
55.180,0.033296
55.181,0.033307
55.182,0.033317
55.183,0.033328
55.184,0.033339
55.185,0.033349
55.186,0.033360
55.187,0.033371
55.188,0.033381
55.189,0.033392
55.190,0.033403
55.191,0.033413
55.192,0.033424
55.193,0.033435
55.194,0.033445
55.195,0.033456
55.196,0.033467
55.197,0.033477
55.198,0.033488
55.199,0.033499
55.200,0.033510
55.201,0.033520
55.202,0.033531
55.203,0.033542
55.204,0.033552
55.205,0.033563
55.206,0.033574
55.207,0.033585
55.208,0.033595
55.209,0.033606
55.210,0.033617
55.211,0.033627
55.212,0.033638
55.213,0.033649
55.214,0.033660
55.215,0.033670
55.216,0.033681
55.217,0.033692
55.218,0.033703
55.219,0.033713
55.220,0.033724
55.221,0.033735
55.222,0.033746
55.223,0.033756
55.224,0.033767
55.225,0.033778
55.226,0.033789
55.227,0.033799
55.228,0.033810
55.229,0.033821
55.230,0.033832
55.231,0.033842
55.232,0.033853
55.233,0.033864
55.234,0.033875
55.235,0.033885
55.236,0.033896
55.237,0.033907
55.238,0.033918
55.239,0.033929
55.240,0.033939
55.241,0.033950
55.242,0.033961
55.243,0.033972
55.244,0.033983
55.245,0.033993
55.246,0.034004
55.247,0.034015
55.248,0.034026
55.249,0.034037
55.250,0.034047
55.251,0.034058
55.252,0.034069
55.253,0.034080
55.254,0.034091
55.255,0.034101
55.256,0.034112
55.257,0.034123
55.258,0.034134
55.259,0.034145
55.260,0.034156
55.261,0.034166
55.262,0.034177
55.263,0.034188
55.264,0.034199
55.265,0.034210
55.266,0.034221
55.267,0.034231
55.268,0.034242
55.269,0.034253
55.270,0.034264
55.271,0.034275
55.272,0.034286
55.273,0.034296
55.274,0.034307
55.275,0.034318
55.276,0.034329
55.277,0.034340
55.278,0.034351
55.279,0.034362
55.280,0.034372
55.281,0.034383
55.282,0.034394
55.283,0.034405
55.284,0.034416
55.285,0.034427
55.286,0.034438
55.287,0.034449
55.288,0.034459
55.289,0.034470
55.290,0.034481
55.291,0.034492
55.292,0.034503
55.293,0.034514
55.294,0.034525
55.295,0.034536
55.296,0.034547
55.297,0.034558
55.298,0.034568
55.299,0.034579
55.300,0.034590
55.301,0.034601
55.302,0.034612
55.303,0.034623
55.304,0.034634
55.305,0.034645
55.306,0.034656
55.307,0.034667
55.308,0.034678
55.309,0.034688
55.310,0.034699
55.311,0.034710
55.312,0.034721
55.313,0.034732
55.314,0.034743
55.315,0.034754
55.316,0.034765
55.317,0.034776
55.318,0.034787
55.319,0.034798
55.320,0.034809
55.321,0.034820
55.322,0.034831
55.323,0.034842
55.324,0.034853
55.325,0.034864
55.326,0.034875
55.327,0.034885
55.328,0.034896
55.329,0.034907
55.330,0.034918
55.331,0.034929
55.332,0.034940
55.333,0.034951
55.334,0.034962
55.335,0.034973
55.336,0.034984
55.337,0.034995
55.338,0.035006
55.339,0.035017
55.340,0.035028
55.341,0.035039
55.342,0.035050
55.343,0.035061
55.344,0.035072
55.345,0.035083
55.346,0.035094
55.347,0.035105
55.348,0.035116
55.349,0.035127
55.350,0.035138
55.351,0.035149
55.352,0.035160
55.353,0.035171
55.354,0.035182
55.355,0.035193
55.356,0.035204
55.357,0.035215
55.358,0.035226
55.359,0.035237
55.360,0.035248
55.361,0.035259
55.362,0.035270
55.363,0.035281
55.364,0.035293
55.365,0.035304
55.366,0.035315
55.367,0.035326
55.368,0.035337
55.369,0.035348
55.370,0.035359
55.371,0.035370
55.372,0.035381
55.373,0.035392
55.374,0.035403
55.375,0.035414
55.376,0.035425
55.377,0.035436
55.378,0.035447
55.379,0.035458
55.380,0.035469
55.381,0.035480
55.382,0.035492
55.383,0.035503
55.384,0.035514
55.385,0.035525
55.386,0.035536
55.387,0.035547
55.388,0.035558
55.389,0.035569
55.390,0.035580
55.391,0.035591
55.392,0.035602
55.393,0.035613
55.394,0.035625
55.395,0.035636
55.396,0.035647
55.397,0.035658
55.398,0.035669
55.399,0.035680
55.400,0.035691
55.401,0.035702
55.402,0.035713
55.403,0.035725
55.404,0.035736
55.405,0.035747
55.406,0.035758
55.407,0.035769
55.408,0.035780
55.409,0.035791
55.410,0.035802
55.411,0.035814
55.412,0.035825
55.413,0.035836
55.414,0.035847
55.415,0.035858
55.416,0.035869
55.417,0.035880
55.418,0.035892
55.419,0.035903
55.420,0.035914
55.421,0.035925
55.422,0.035936
55.423,0.035947
55.424,0.035958
55.425,0.035970
55.426,0.035981
55.427,0.035992
55.428,0.036003
55.429,0.036014
55.430,0.036025
55.431,0.036037
55.432,0.036048
55.433,0.036059
55.434,0.036070
55.435,0.036081
55.436,0.036093
55.437,0.036104
55.438,0.036115
55.439,0.036126
55.440,0.036137
55.441,0.036148
55.442,0.036160
55.443,0.036171
55.444,0.036182
55.445,0.036193
55.446,0.036204
55.447,0.036216
55.448,0.036227
55.449,0.036238
55.450,0.036249
55.451,0.036261
55.452,0.036272
55.453,0.036283
55.454,0.036294
55.455,0.036305
55.456,0.036317
55.457,0.036328
55.458,0.036339
55.459,0.036350
55.460,0.036362
55.461,0.036373
55.462,0.036384
55.463,0.036395
55.464,0.036407
55.465,0.036418
55.466,0.036429
55.467,0.036440
55.468,0.036452
55.469,0.036463
55.470,0.036474
55.471,0.036485
55.472,0.036497
55.473,0.036508
55.474,0.036519
55.475,0.036530
55.476,0.036542
55.477,0.036553
55.478,0.036564
55.479,0.036575
55.480,0.036587
55.481,0.036598
55.482,0.036609
55.483,0.036620
55.484,0.036632
55.485,0.036643
55.486,0.036654
55.487,0.036666
55.488,0.036677
55.489,0.036688
55.490,0.036699
55.491,0.036711
55.492,0.036722
55.493,0.036733
55.494,0.036745
55.495,0.036756
55.496,0.036767
55.497,0.036779
55.498,0.036790
55.499,0.036801
55.500,0.036813
55.501,0.036824
55.502,0.036835
55.503,0.036846
55.504,0.036858
55.505,0.036869
55.506,0.036880
55.507,0.036892
55.508,0.036903
55.509,0.036914
55.510,0.036926
55.511,0.036937
55.512,0.036948
55.513,0.036960
55.514,0.036971
55.515,0.036982
55.516,0.036994
55.517,0.037005
55.518,0.037017
55.519,0.037028
55.520,0.037039
55.521,0.037051
55.522,0.037062
55.523,0.037073
55.524,0.037085
55.525,0.037096
55.526,0.037107
55.527,0.037119
55.528,0.037130
55.529,0.037142
55.530,0.037153
55.531,0.037164
55.532,0.037176
55.533,0.037187
55.534,0.037198
55.535,0.037210
55.536,0.037221
55.537,0.037233
55.538,0.037244
55.539,0.037255
55.540,0.037267
55.541,0.037278
55.542,0.037290
55.543,0.037301
55.544,0.037312
55.545,0.037324
55.546,0.037335
55.547,0.037347
55.548,0.037358
55.549,0.037369
55.550,0.037381
55.551,0.037392
55.552,0.037404
55.553,0.037415
55.554,0.037427
55.555,0.037438
55.556,0.037449
55.557,0.037461
55.558,0.037472
55.559,0.037484
55.560,0.037495
55.561,0.037507
55.562,0.037518
55.563,0.037529
55.564,0.037541
55.565,0.037552
55.566,0.037564
55.567,0.037575
55.568,0.037587
55.569,0.037598
55.570,0.037610
55.571,0.037621
55.572,0.037633
55.573,0.037644
55.574,0.037655
55.575,0.037667
55.576,0.037678
55.577,0.037690
55.578,0.037701
55.579,0.037713
55.580,0.037724
55.581,0.037736
55.582,0.037747
55.583,0.037759
55.584,0.037770
55.585,0.037782
55.586,0.037793
55.587,0.037805
55.588,0.037816
55.589,0.037828
55.590,0.037839
55.591,0.037851
55.592,0.037862
55.593,0.037874
55.594,0.037885
55.595,0.037897
55.596,0.037908
55.597,0.037920
55.598,0.037931
55.599,0.037943
55.600,0.037954
55.601,0.037966
55.602,0.037977
55.603,0.037989
55.604,0.038000
55.605,0.038012
55.606,0.038023
55.607,0.038035
55.608,0.038046
55.609,0.038058
55.610,0.038070
55.611,0.038081
55.612,0.038093
55.613,0.038104
55.614,0.038116
55.615,0.038127
55.616,0.038139
55.617,0.038150
55.618,0.038162
55.619,0.038173
55.620,0.038185
55.621,0.038197
55.622,0.038208
55.623,0.038220
55.624,0.038231
55.625,0.038243
55.626,0.038254
55.627,0.038266
55.628,0.038278
55.629,0.038289
55.630,0.038301
55.631,0.038312
55.632,0.038324
55.633,0.038335
55.634,0.038347
55.635,0.038359
55.636,0.038370
55.637,0.038382
55.638,0.038393
55.639,0.038405
55.640,0.038417
55.641,0.038428
55.642,0.038440
55.643,0.038451
55.644,0.038463
55.645,0.038475
55.646,0.038486
55.647,0.038498
55.648,0.038509
55.649,0.038521
55.650,0.038533
55.651,0.038544
55.652,0.038556
55.653,0.038568
55.654,0.038579
55.655,0.038591
55.656,0.038602
55.657,0.038614
55.658,0.038626
55.659,0.038637
55.660,0.038649
55.661,0.038661
55.662,0.038672
55.663,0.038684
55.664,0.038696
55.665,0.038707
55.666,0.038719
55.667,0.038731
55.668,0.038742
55.669,0.038754
55.670,0.038765
55.671,0.038777
55.672,0.038789
55.673,0.038800
55.674,0.038812
55.675,0.038824
55.676,0.038835
55.677,0.038847
55.678,0.038859
55.679,0.038871
55.680,0.038882
55.681,0.038894
55.682,0.038906
55.683,0.038917
55.684,0.038929
55.685,0.038941
55.686,0.038952
55.687,0.038964
55.688,0.038976
55.689,0.038987
55.690,0.038999
55.691,0.039011
55.692,0.039023
55.693,0.039034
55.694,0.039046
55.695,0.039058
55.696,0.039069
55.697,0.039081
55.698,0.039093
55.699,0.039104
55.700,0.039116
55.701,0.039128
55.702,0.039140
55.703,0.039151
55.704,0.039163
55.705,0.039175
55.706,0.039187
55.707,0.039198
55.708,0.039210
55.709,0.039222
55.710,0.039234
55.711,0.039245
55.712,0.039257
55.713,0.039269
55.714,0.039281
55.715,0.039292
55.716,0.039304
55.717,0.039316
55.718,0.039328
55.719,0.039339
55.720,0.039351
55.721,0.039363
55.722,0.039375
55.723,0.039386
55.724,0.039398
55.725,0.039410
55.726,0.039422
55.727,0.039433
55.728,0.039445
55.729,0.039457
55.730,0.039469
55.731,0.039481
55.732,0.039492
55.733,0.039504
55.734,0.039516
55.735,0.039528
55.736,0.039539
55.737,0.039551
55.738,0.039563
55.739,0.039575
55.740,0.039587
55.741,0.039598
55.742,0.039610
55.743,0.039622
55.744,0.039634
55.745,0.039646
55.746,0.039658
55.747,0.039669
55.748,0.039681
55.749,0.039693
55.750,0.039705
55.751,0.039717
55.752,0.039728
55.753,0.039740
55.754,0.039752
55.755,0.039764
55.756,0.039776
55.757,0.039788
55.758,0.039799
55.759,0.039811
55.760,0.039823
55.761,0.039835
55.762,0.039847
55.763,0.039859
55.764,0.039871
55.765,0.039882
55.766,0.039894
55.767,0.039906
55.768,0.039918
55.769,0.039930
55.770,0.039942
55.771,0.039954
55.772,0.039965
55.773,0.039977
55.774,0.039989
55.775,0.040001
55.776,0.040013
55.777,0.040025
55.778,0.040037
55.779,0.040049
55.780,0.040060
55.781,0.040072
55.782,0.040084
55.783,0.040096
55.784,0.040108
55.785,0.040120
55.786,0.040132
55.787,0.040144
55.788,0.040156
55.789,0.040167
55.790,0.040179
55.791,0.040191
55.792,0.040203
55.793,0.040215
55.794,0.040227
55.795,0.040239
55.796,0.040251
55.797,0.040263
55.798,0.040275
55.799,0.040287
55.800,0.040298
55.801,0.040310
55.802,0.040322
55.803,0.040334
55.804,0.040346
55.805,0.040358
55.806,0.040370
55.807,0.040382
55.808,0.040394
55.809,0.040406
55.810,0.040418
55.811,0.040430
55.812,0.040442
55.813,0.040454
55.814,0.040466
55.815,0.040478
55.816,0.040490
55.817,0.040501
55.818,0.040513
55.819,0.040525
55.820,0.040537
55.821,0.040549
55.822,0.040561
55.823,0.040573
55.824,0.040585
55.825,0.040597
55.826,0.040609
55.827,0.040621
55.828,0.040633
55.829,0.040645
55.830,0.040657
55.831,0.040669
55.832,0.040681
55.833,0.040693
55.834,0.040705
55.835,0.040717
55.836,0.040729
55.837,0.040741
55.838,0.040753
55.839,0.040765
55.840,0.040777
55.841,0.040789
55.842,0.040801
55.843,0.040813
55.844,0.040825
55.845,0.040837
55.846,0.040849
55.847,0.040861
55.848,0.040873
55.849,0.040885
55.850,0.040897
55.851,0.040909
55.852,0.040921
55.853,0.040933
55.854,0.040945
55.855,0.040957
55.856,0.040969
55.857,0.040981
55.858,0.040993
55.859,0.041005
55.860,0.041018
55.861,0.041030
55.862,0.041042
55.863,0.041054
55.864,0.041066
55.865,0.041078
55.866,0.041090
55.867,0.041102
55.868,0.041114
55.869,0.041126
55.870,0.041138
55.871,0.041150
55.872,0.041162
55.873,0.041174
55.874,0.041186
55.875,0.041198
55.876,0.041211
55.877,0.041223
55.878,0.041235
55.879,0.041247
55.880,0.041259
55.881,0.041271
55.882,0.041283
55.883,0.041295
55.884,0.041307
55.885,0.041319
55.886,0.041331
55.887,0.041343
55.888,0.041356
55.889,0.041368
55.890,0.041380
55.891,0.041392
55.892,0.041404
55.893,0.041416
55.894,0.041428
55.895,0.041440
55.896,0.041452
55.897,0.041465
55.898,0.041477
55.899,0.041489
55.900,0.041501
55.901,0.041513
55.902,0.041525
55.903,0.041537
55.904,0.041549
55.905,0.041562
55.906,0.041574
55.907,0.041586
55.908,0.041598
55.909,0.041610
55.910,0.041622
55.911,0.041634
55.912,0.041647
55.913,0.041659
55.914,0.041671
55.915,0.041683
55.916,0.041695
55.917,0.041707
55.918,0.041720
55.919,0.041732
55.920,0.041744
55.921,0.041756
55.922,0.041768
55.923,0.041780
55.924,0.041793
55.925,0.041805
55.926,0.041817
55.927,0.041829
55.928,0.041841
55.929,0.041853
55.930,0.041866
55.931,0.041878
55.932,0.041890
55.933,0.041902
55.934,0.041914
55.935,0.041927
55.936,0.041939
55.937,0.041951
55.938,0.041963
55.939,0.041975
55.940,0.041988
55.941,0.042000
55.942,0.042012
55.943,0.042024
55.944,0.042036
55.945,0.042049
55.946,0.042061
55.947,0.042073
55.948,0.042085
55.949,0.042098
55.950,0.042110
55.951,0.042122
55.952,0.042134
55.953,0.042146
55.954,0.042159
55.955,0.042171
55.956,0.042183
55.957,0.042195
55.958,0.042208
55.959,0.042220
55.960,0.042232
55.961,0.042244
55.962,0.042257
55.963,0.042269
55.964,0.042281
55.965,0.042293
55.966,0.042306
55.967,0.042318
55.968,0.042330
55.969,0.042342
55.970,0.042355
55.971,0.042367
55.972,0.042379
55.973,0.042392
55.974,0.042404
55.975,0.042416
55.976,0.042428
55.977,0.042441
55.978,0.042453
55.979,0.042465
55.980,0.042477
55.981,0.042490
55.982,0.042502
55.983,0.042514
55.984,0.042527
55.985,0.042539
55.986,0.042551
55.987,0.042564
55.988,0.042576
55.989,0.042588
55.990,0.042600
55.991,0.042613
55.992,0.042625
55.993,0.042637
55.994,0.042650
55.995,0.042662
55.996,0.042674
55.997,0.042687
55.998,0.042699
55.999,0.042711
56.000,0.042724
56.001,0.042736
56.002,0.042748
56.003,0.042761
56.004,0.042773
56.005,0.042785
56.006,0.042798
56.007,0.042810
56.008,0.042822
56.009,0.042835
56.010,0.042847
56.011,0.042859
56.012,0.042872
56.013,0.042884
56.014,0.042896
56.015,0.042909
56.016,0.042921
56.017,0.042933
56.018,0.042946
56.019,0.042958
56.020,0.042971
56.021,0.042983
56.022,0.042995
56.023,0.043008
56.024,0.043020
56.025,0.043032
56.026,0.043045
56.027,0.043057
56.028,0.043070
56.029,0.043082
56.030,0.043094
56.031,0.043107
56.032,0.043119
56.033,0.043131
56.034,0.043144
56.035,0.043156
56.036,0.043169
56.037,0.043181
56.038,0.043193
56.039,0.043206
56.040,0.043218
56.041,0.043231
56.042,0.043243
56.043,0.043256
56.044,0.043268
56.045,0.043280
56.046,0.043293
56.047,0.043305
56.048,0.043318
56.049,0.043330
56.050,0.043342
56.051,0.043355
56.052,0.043367
56.053,0.043380
56.054,0.043392
56.055,0.043405
56.056,0.043417
56.057,0.043430
56.058,0.043442
56.059,0.043454
56.060,0.043467
56.061,0.043479
56.062,0.043492
56.063,0.043504
56.064,0.043517
56.065,0.043529
56.066,0.043542
56.067,0.043554
56.068,0.043566
56.069,0.043579
56.070,0.043591
56.071,0.043604
56.072,0.043616
56.073,0.043629
56.074,0.043641
56.075,0.043654
56.076,0.043666
56.077,0.043679
56.078,0.043691
56.079,0.043704
56.080,0.043716
56.081,0.043729
56.082,0.043741
56.083,0.043754
56.084,0.043766
56.085,0.043779
56.086,0.043791
56.087,0.043804
56.088,0.043816
56.089,0.043829
56.090,0.043841
56.091,0.043854
56.092,0.043866
56.093,0.043879
56.094,0.043891
56.095,0.043904
56.096,0.043916
56.097,0.043929
56.098,0.043941
56.099,0.043954
56.100,0.043966
56.101,0.043979
56.102,0.043991
56.103,0.044004
56.104,0.044016
56.105,0.044029
56.106,0.044042
56.107,0.044054
56.108,0.044067
56.109,0.044079
56.110,0.044092
56.111,0.044104
56.112,0.044117
56.113,0.044129
56.114,0.044142
56.115,0.044154
56.116,0.044167
56.117,0.044180
56.118,0.044192
56.119,0.044205
56.120,0.044217
56.121,0.044230
56.122,0.044242
56.123,0.044255
56.124,0.044268
56.125,0.044280
56.126,0.044293
56.127,0.044305
56.128,0.044318
56.129,0.044330
56.130,0.044343
56.131,0.044356
56.132,0.044368
56.133,0.044381
56.134,0.044393
56.135,0.044406
56.136,0.044419
56.137,0.044431
56.138,0.044444
56.139,0.044456
56.140,0.044469
56.141,0.044482
56.142,0.044494
56.143,0.044507
56.144,0.044519
56.145,0.044532
56.146,0.044545
56.147,0.044557
56.148,0.044570
56.149,0.044583
56.150,0.044595
56.151,0.044608
56.152,0.044620
56.153,0.044633
56.154,0.044646
56.155,0.044658
56.156,0.044671
56.157,0.044684
56.158,0.044696
56.159,0.044709
56.160,0.044722
56.161,0.044734
56.162,0.044747
56.163,0.044760
56.164,0.044772
56.165,0.044785
56.166,0.044798
56.167,0.044810
56.168,0.044823
56.169,0.044836
56.170,0.044848
56.171,0.044861
56.172,0.044874
56.173,0.044886
56.174,0.044899
56.175,0.044912
56.176,0.044924
56.177,0.044937
56.178,0.044950
56.179,0.044962
56.180,0.044975
56.181,0.044988
56.182,0.045000
56.183,0.045013
56.184,0.045026
56.185,0.045038
56.186,0.045051
56.187,0.045064
56.188,0.045077
56.189,0.045089
56.190,0.045102
56.191,0.045115
56.192,0.045127
56.193,0.045140
56.194,0.045153
56.195,0.045165
56.196,0.045178
56.197,0.045191
56.198,0.045204
56.199,0.045216
56.200,0.045229
56.201,0.045242
56.202,0.045255
56.203,0.045267
56.204,0.045280
56.205,0.045293
56.206,0.045305
56.207,0.045318
56.208,0.045331
56.209,0.045344
56.210,0.045356
56.211,0.045369
56.212,0.045382
56.213,0.045395
56.214,0.045407
56.215,0.045420
56.216,0.045433
56.217,0.045446
56.218,0.045459
56.219,0.045471
56.220,0.045484
56.221,0.045497
56.222,0.045510
56.223,0.045522
56.224,0.045535
56.225,0.045548
56.226,0.045561
56.227,0.045573
56.228,0.045586
56.229,0.045599
56.230,0.045612
56.231,0.045625
56.232,0.045637
56.233,0.045650
56.234,0.045663
56.235,0.045676
56.236,0.045689
56.237,0.045701
56.238,0.045714
56.239,0.045727
56.240,0.045740
56.241,0.045753
56.242,0.045765
56.243,0.045778
56.244,0.045791
56.245,0.045804
56.246,0.045817
56.247,0.045829
